OOIBase32 Version 2.0.6.5 Data File
++++++++++++++++++++++++++++++++++++
Date: 03-24-2011, 10:55:42
User: Valued Ocean Optics Customer
Spectrometer Serial Number: USB4C01507
Spectrometer Channel: Master
Integration Time (msec): 46
Spectra Averaged: 30
Boxcar Smoothing: 5
Correct for Electrical Dark: Enabled
Time Normalized: Disabled
Dual-beam Reference: Disabled
Reference Channel: Master
Temperature: Not acquired
Spectrometer Type: S4000
ADC Type: USB4000
Number of Pixels in File: 3648
Graph Title: 
>>>>>Begin Spectral Data<<<<<
179.17	1141.598
179.39	2773.749
179.60	-99.354
179.82	-225.647
180.03	206.767
180.24	1067.084
180.46	45.686
180.67	-340.619
180.89	257.310
181.10	-149.392
181.31	138.893
181.53	-38.558
181.74	-76.613
181.96	505.441
182.17	69.194
182.39	-43.271
182.60	65.018
182.81	148.564
183.03	78.448
183.24	-78.540
183.46	57.623
183.67	37.715
183.88	30.435
184.10	40.671
184.31	36.507
184.53	34.348
184.74	31.133
184.96	26.122
185.17	25.158
185.38	16.366
185.60	28.735
185.81	22.026
186.03	29.863
186.24	27.859
186.45	31.634
186.67	35.840
186.88	41.254
187.10	38.927
187.31	36.629
187.52	31.537
187.74	34.503
187.95	28.625
188.17	27.714
188.38	18.660
188.59	20.460
188.81	8.679
189.02	12.438
189.24	4.729
189.45	5.160
189.66	11.883
189.88	2.129
190.09	1.784
190.30	1.895
190.52	13.732
190.73	19.682
190.95	19.462
191.16	19.787
191.37	7.242
191.59	5.829
191.80	17.021
192.02	19.075
192.23	33.663
192.44	19.946
192.66	19.735
192.87	7.341
193.08	2.332
193.30	3.852
193.51	13.288
193.73	21.245
193.94	32.124
194.15	25.042
194.37	21.875
194.58	20.582
194.79	21.201
195.01	20.382
195.22	22.744
195.44	26.753
195.65	29.379
195.86	22.338
196.08	18.351
196.29	20.654
196.50	15.624
196.72	15.395
196.93	18.671
197.14	20.421
197.36	24.917
197.57	25.735
197.79	24.676
198.00	20.233
198.21	21.936
198.43	25.897
198.64	17.225
198.85	19.556
199.07	20.003
199.28	15.319
199.49	15.497
199.71	14.949
199.92	17.161
200.13	16.168
200.35	21.255
200.56	17.349
200.78	16.102
200.99	19.171
201.20	23.446
201.42	20.958
201.63	14.881
201.84	15.609
202.06	14.058
202.27	12.262
202.48	12.706
202.70	7.113
202.91	8.326
203.12	10.035
203.34	9.354
203.55	8.344
203.76	6.666
203.98	15.141
204.19	17.298
204.40	16.494
204.62	15.278
204.83	11.451
205.04	13.802
205.26	15.777
205.47	15.616
205.68	13.296
205.90	12.353
206.11	18.441
206.32	12.958
206.54	12.248
206.75	13.042
206.96	13.412
207.18	16.042
207.39	16.328
207.60	20.382
207.82	17.549
208.03	17.193
208.24	16.307
208.45	15.203
208.67	14.172
208.88	11.804
209.09	13.080
209.31	14.420
209.52	13.019
209.73	13.935
209.95	11.623
210.16	12.807
210.37	12.016
210.59	13.822
210.80	10.249
211.01	12.170
211.23	13.305
211.44	13.215
211.65	12.148
211.86	12.145
212.08	11.819
212.29	8.376
212.50	6.020
212.72	5.493
212.93	1.604
213.14	0.408
213.36	-1.592
213.57	-2.206
213.78	-1.343
213.99	2.123
214.21	5.785
214.42	4.526
214.63	7.499
214.85	6.174
215.06	10.979
215.27	14.652
215.49	13.477
215.70	13.155
215.91	10.562
216.12	7.074
216.34	7.015
216.55	3.890
216.76	3.812
216.98	-0.971
217.19	1.132
217.40	2.744
217.61	3.337
217.83	7.797
218.04	8.129
218.25	8.353
218.47	11.051
218.68	9.370
218.89	10.274
219.10	10.513
219.32	10.406
219.53	11.129
219.74	8.843
219.95	7.835
220.17	6.131
220.38	6.133
220.59	7.011
220.81	6.415
221.02	6.829
221.23	6.797
221.44	6.555
221.66	8.191
221.87	7.099
222.08	7.984
222.29	8.564
222.51	9.416
222.72	9.672
222.93	10.322
223.14	9.434
223.36	9.183
223.57	8.779
223.78	8.750
223.99	7.560
224.21	7.553
224.42	6.521
224.63	5.338
224.84	4.072
225.06	4.032
225.27	3.999
225.48	4.495
225.69	4.925
225.91	5.015
226.12	4.312
226.33	5.252
226.54	4.957
226.76	4.789
226.97	5.028
227.18	5.050
227.39	4.839
227.61	4.872
227.82	4.825
228.03	4.598
228.24	4.606
228.46	4.739
228.67	4.717
228.88	4.697
229.09	4.718
229.31	4.706
229.52	4.882
229.73	5.097
229.94	4.945
230.16	5.055
230.37	5.389
230.58	5.069
230.79	5.126
231.00	5.173
231.22	5.548
231.43	5.667
231.64	5.541
231.85	5.306
232.07	5.093
232.28	5.273
232.49	5.371
232.70	4.889
232.91	5.748
233.13	5.959
233.34	5.666
233.55	5.609
233.76	5.538
233.98	5.688
234.19	5.560
234.40	5.482
234.61	5.522
234.82	5.385
235.04	5.504
235.25	5.235
235.46	4.840
235.67	4.810
235.88	4.972
236.10	4.937
236.31	4.762
236.52	4.999
236.73	5.338
236.94	5.514
237.16	5.087
237.37	5.285
237.58	4.835
237.79	5.155
238.01	4.932
238.22	4.543
238.43	4.701
238.64	4.884
238.85	4.611
239.06	4.478
239.28	4.176
239.49	4.457
239.70	4.200
239.91	4.417
240.12	4.274
240.34	4.328
240.55	4.450
240.76	4.485
240.97	4.463
241.18	4.474
241.40	4.329
241.61	4.327
241.82	4.257
242.03	4.416
242.24	4.328
242.45	4.298
242.67	4.322
242.88	4.330
243.09	4.136
243.30	4.036
243.51	4.171
243.73	4.228
243.94	4.260
244.15	4.205
244.36	4.181
244.57	4.531
244.78	4.488
245.00	4.286
245.21	4.177
245.42	4.060
245.63	4.052
245.84	4.002
246.05	4.018
246.27	4.013
246.48	4.003
246.69	3.943
246.90	3.859
247.11	3.855
247.32	3.916
247.54	3.900
247.75	3.976
247.96	3.936
248.17	3.952
248.38	4.025
248.59	4.041
248.81	4.043
249.02	4.087
249.23	4.017
249.44	3.978
249.65	3.899
249.86	3.817
250.07	3.973
250.29	4.026
250.50	3.773
250.71	3.642
250.92	3.624
251.13	3.758
251.34	3.817
251.55	3.803
251.77	3.878
251.98	3.973
252.19	4.090
252.40	3.932
252.61	3.933
252.82	3.995
253.03	3.919
253.25	3.945
253.46	3.786
253.67	3.686
253.88	3.826
254.09	3.924
254.30	3.706
254.51	3.726
254.73	3.849
254.94	4.038
255.15	4.218
255.36	4.169
255.57	4.020
255.78	3.977
255.99	3.999
256.20	4.035
256.42	3.832
256.63	3.631
256.84	3.382
257.05	3.229
257.26	3.054
257.47	2.877
257.68	2.993
257.89	2.966
258.10	3.020
258.32	2.969
258.53	2.967
258.74	3.007
258.95	3.062
259.16	3.116
259.37	3.141
259.58	3.122
259.79	3.184
260.00	3.166
260.22	3.183
260.43	3.256
260.64	3.249
260.85	3.319
261.06	3.320
261.27	3.334
261.48	3.385
261.69	3.292
261.90	3.390
262.12	3.371
262.33	3.493
262.54	3.544
262.75	3.308
262.96	3.415
263.17	3.348
263.38	3.434
263.59	3.446
263.80	3.468
264.01	3.614
264.22	3.496
264.44	3.374
264.65	3.131
264.86	3.175
265.07	3.202
265.28	3.135
265.49	3.067
265.70	2.958
265.91	3.023
266.12	2.936
266.33	2.840
266.54	2.959
266.75	2.924
266.97	3.051
267.18	3.034
267.39	3.105
267.60	3.067
267.81	3.018
268.02	3.096
268.23	3.111
268.44	3.132
268.65	3.196
268.86	3.131
269.07	3.250
269.28	3.167
269.49	3.218
269.70	3.072
269.92	3.165
270.13	3.243
270.34	3.225
270.55	3.172
270.76	3.158
270.97	3.239
271.18	3.210
271.39	3.150
271.60	3.148
271.81	3.116
272.02	3.190
272.23	3.143
272.44	3.157
272.65	3.113
272.86	3.116
273.07	3.109
273.28	3.075
273.49	3.073
273.71	3.153
273.92	3.262
274.13	3.179
274.34	3.122
274.55	3.159
274.76	3.085
274.97	3.200
275.18	3.208
275.39	3.200
275.60	3.201
275.81	3.325
276.02	3.196
276.23	3.110
276.44	3.046
276.65	3.073
276.86	3.135
277.07	3.202
277.28	3.103
277.49	3.127
277.70	3.026
277.91	3.008
278.12	2.819
278.33	2.823
278.54	2.838
278.75	2.894
278.96	2.899
279.17	2.891
279.39	2.778
279.60	2.752
279.81	2.711
280.02	2.764
280.23	2.799
280.44	2.834
280.65	2.842
280.86	2.788
281.07	2.866
281.28	2.889
281.49	2.702
281.70	2.785
281.91	2.823
282.12	2.853
282.33	2.899
282.54	2.883
282.75	2.948
282.96	3.028
283.17	3.060
283.38	2.941
283.59	2.888
283.80	2.920
284.01	2.845
284.22	2.851
284.43	2.750
284.64	2.750
284.85	2.731
285.06	2.707
285.27	2.656
285.48	2.668
285.69	2.716
285.90	2.758
286.11	2.857
286.32	2.907
286.53	2.838
286.74	2.960
286.95	2.926
287.16	2.963
287.37	2.932
287.58	2.931
287.79	2.920
288.00	2.944
288.21	2.902
288.42	2.767
288.63	2.769
288.84	2.813
289.05	2.812
289.26	2.814
289.47	2.742
289.68	2.703
289.89	2.713
290.10	2.647
290.31	2.583
290.51	2.587
290.72	2.640
290.93	2.649
291.14	2.681
291.35	2.603
291.56	2.535
291.77	2.525
291.98	2.580
292.19	2.589
292.40	2.615
292.61	2.580
292.82	2.574
293.03	2.636
293.24	2.579
293.45	2.593
293.66	2.619
293.87	2.749
294.08	2.775
294.29	2.786
294.50	2.716
294.71	2.741
294.92	2.766
295.13	2.834
295.34	2.755
295.55	2.754
295.76	2.657
295.96	2.641
296.17	2.612
296.38	2.633
296.59	2.592
296.80	2.607
297.01	2.594
297.22	2.595
297.43	2.571
297.64	2.584
297.85	2.575
298.06	2.607
298.27	2.649
298.48	2.611
298.69	2.592
298.90	2.651
299.11	2.697
299.32	2.665
299.53	2.613
299.73	2.617
299.94	2.643
300.15	2.647
300.36	2.628
300.57	2.594
300.78	2.572
300.99	2.507
301.20	2.420
301.41	2.389
301.62	2.477
301.83	2.576
302.04	2.483
302.25	2.442
302.45	2.451
302.66	2.462
302.87	2.422
303.08	2.453
303.29	2.481
303.50	2.559
303.71	2.601
303.92	2.522
304.13	2.499
304.34	2.515
304.55	2.479
304.76	2.510
304.96	2.489
305.17	2.477
305.38	2.493
305.59	2.484
305.80	2.476
306.01	2.425
306.22	2.435
306.43	2.405
306.64	2.376
306.85	2.406
307.06	2.339
307.26	2.323
307.47	2.284
307.68	2.328
307.89	2.331
308.10	2.241
308.31	2.245
308.52	2.261
308.73	2.254
308.94	2.256
309.14	2.286
309.35	2.338
309.56	2.356
309.77	2.356
309.98	2.352
310.19	2.401
310.40	2.442
310.61	2.400
310.82	2.382
311.02	2.350
311.23	2.362
311.44	2.303
311.65	2.234
311.86	2.232
312.07	2.245
312.28	2.173
312.49	2.085
312.69	2.069
312.90	2.034
313.11	2.017
313.32	2.066
313.53	2.086
313.74	2.118
313.95	2.148
314.16	2.127
314.36	2.175
314.57	2.232
314.78	2.297
314.99	2.291
315.20	2.390
315.41	2.469
315.62	2.407
315.82	2.398
316.03	2.366
316.24	2.445
316.45	2.474
316.66	2.442
316.87	2.450
317.08	2.430
317.28	2.523
317.49	2.468
317.70	2.410
317.91	2.467
318.12	2.429
318.33	2.486
318.54	2.434
318.74	2.430
318.95	2.498
319.16	2.484
319.37	2.479
319.58	2.417
319.79	2.391
319.99	2.372
320.20	2.388
320.41	2.445
320.62	2.410
320.83	2.392
321.04	2.370
321.24	2.265
321.45	2.300
321.66	2.289
321.87	2.309
322.08	2.339
322.29	2.335
322.49	2.324
322.70	2.234
322.91	2.286
323.12	2.350
323.33	2.341
323.54	2.384
323.74	2.354
323.95	2.344
324.16	2.328
324.37	2.336
324.58	2.345
324.79	2.277
324.99	2.327
325.20	2.322
325.41	2.247
325.62	2.245
325.83	2.231
326.03	2.122
326.24	2.146
326.45	2.118
326.66	2.045
326.87	2.022
327.07	2.009
327.28	1.985
327.49	1.957
327.70	1.969
327.91	1.969
328.11	1.948
328.32	2.059
328.53	2.068
328.74	2.055
328.95	2.127
329.15	2.193
329.36	2.302
329.57	2.315
329.78	2.312
329.99	2.271
330.19	2.212
330.40	2.263
330.61	2.263
330.82	2.220
331.03	2.203
331.23	2.187
331.44	2.120
331.65	2.063
331.86	2.141
332.07	2.155
332.27	2.185
332.48	2.256
332.69	2.245
332.90	2.233
333.10	2.267
333.31	2.295
333.52	2.250
333.73	2.297
333.94	2.275
334.14	2.195
334.35	2.188
334.56	2.156
334.77	2.134
334.97	2.112
335.18	2.050
335.39	2.025
335.60	1.997
335.80	2.041
336.01	2.018
336.22	2.034
336.43	2.042
336.64	2.033
336.84	2.052
337.05	2.022
337.26	2.014
337.47	2.054
337.67	2.105
337.88	2.101
338.09	2.099
338.30	2.115
338.50	2.151
338.71	2.163
338.92	2.165
339.13	2.181
339.33	2.195
339.54	2.164
339.75	2.180
339.96	2.160
340.16	2.178
340.37	2.188
340.58	2.166
340.79	2.125
340.99	2.083
341.20	2.003
341.41	1.977
341.62	1.978
341.82	1.991
342.03	1.911
342.24	1.878
342.44	1.883
342.65	1.857
342.86	1.812
343.07	1.814
343.27	1.884
343.48	1.953
343.69	1.980
343.90	1.985
344.10	1.954
344.31	1.996
344.52	2.019
344.72	2.009
344.93	1.998
345.14	2.047
345.35	2.039
345.55	2.016
345.76	2.005
345.97	1.982
346.18	1.949
346.38	1.980
346.59	1.967
346.80	1.965
347.00	1.928
347.21	1.940
347.42	1.932
347.62	1.951
347.83	1.905
348.04	1.914
348.25	1.878
348.45	1.917
348.66	1.933
348.87	1.962
349.07	1.958
349.28	2.004
349.49	1.994
349.70	2.016
349.90	1.999
350.11	2.044
350.32	2.001
350.52	2.025
350.73	2.009
350.94	1.983
351.14	1.996
351.35	1.980
351.56	1.944
351.76	1.959
351.97	1.919
352.18	1.927
352.39	1.895
352.59	1.942
352.80	1.936
353.01	1.956
353.21	1.971
353.42	1.960
353.63	1.949
353.83	1.944
354.04	1.937
354.25	1.941
354.45	1.909
354.66	1.922
354.87	1.896
355.07	1.922
355.28	1.913
355.49	1.934
355.69	1.910
355.90	1.936
356.11	1.993
356.31	2.003
356.52	2.000
356.73	2.023
356.93	2.023
357.14	2.019
357.35	2.032
357.55	2.075
357.76	2.021
357.97	1.983
358.17	1.999
358.38	1.962
358.59	1.954
358.79	1.959
359.00	1.953
359.21	1.931
359.41	1.936
359.62	1.910
359.83	1.855
360.03	1.881
360.24	1.931
360.44	1.902
360.65	1.890
360.86	1.899
361.06	1.892
361.27	1.868
361.48	1.885
361.68	1.914
361.89	1.912
362.10	1.923
362.30	1.910
362.51	1.908
362.72	1.916
362.92	1.913
363.13	1.872
363.33	1.851
363.54	1.882
363.75	1.895
363.95	1.833
364.16	1.845
364.37	1.851
364.57	1.868
364.78	1.863
364.98	1.850
365.19	1.826
365.40	1.871
365.60	1.870
365.81	1.870
366.02	1.867
366.22	1.895
366.43	1.899
366.63	1.891
366.84	1.871
367.05	1.883
367.25	1.856
367.46	1.855
367.66	1.875
367.87	1.907
368.08	1.896
368.28	1.890
368.49	1.864
368.69	1.832
368.90	1.840
369.11	1.853
369.31	1.830
369.52	1.876
369.72	1.904
369.93	1.838
370.14	1.856
370.34	1.842
370.55	1.819
370.75	1.832
370.96	1.830
371.17	1.823
371.37	1.817
371.58	1.818
371.78	1.805
371.99	1.813
372.20	1.837
372.40	1.795
372.61	1.799
372.81	1.834
373.02	1.831
373.23	1.840
373.43	1.848
373.64	1.867
373.84	1.861
374.05	1.885
374.25	1.888
374.46	1.859
374.67	1.866
374.87	1.890
375.08	1.858
375.28	1.859
375.49	1.847
375.69	1.839
375.90	1.825
376.11	1.835
376.31	1.797
376.52	1.771
376.72	1.783
376.93	1.766
377.13	1.756
377.34	1.765
377.55	1.795
377.75	1.816
377.96	1.798
378.16	1.786
378.37	1.813
378.57	1.836
378.78	1.862
378.98	1.853
379.19	1.889
379.40	1.845
379.60	1.815
379.81	1.791
380.01	1.769
380.22	1.754
380.42	1.764
380.63	1.746
380.83	1.728
381.04	1.706
381.24	1.715
381.45	1.699
381.66	1.732
381.86	1.769
382.07	1.771
382.27	1.795
382.48	1.808
382.68	1.817
382.89	1.809
383.09	1.803
383.30	1.823
383.50	1.829
383.71	1.816
383.91	1.812
384.12	1.811
384.32	1.794
384.53	1.777
384.73	1.789
384.94	1.767
385.15	1.785
385.35	1.796
385.56	1.782
385.76	1.765
385.97	1.765
386.17	1.767
386.38	1.746
386.58	1.746
386.79	1.770
386.99	1.760
387.20	1.765
387.40	1.745
387.61	1.750
387.81	1.741
388.02	1.764
388.22	1.782
388.43	1.785
388.63	1.792
388.84	1.812
389.04	1.791
389.25	1.809
389.45	1.793
389.66	1.793
389.86	1.790
390.07	1.795
390.27	1.801
390.48	1.792
390.68	1.806
390.89	1.817
391.09	1.831
391.30	1.855
391.50	1.863
391.71	1.888
391.91	1.881
392.12	1.880
392.32	1.883
392.53	1.885
392.73	1.901
392.94	1.894
393.14	1.897
393.35	1.875
393.55	1.854
393.75	1.829
393.96	1.813
394.16	1.813
394.37	1.799
394.57	1.807
394.78	1.802
394.98	1.774
395.19	1.758
395.39	1.769
395.60	1.765
395.80	1.787
396.01	1.793
396.21	1.815
396.42	1.810
396.62	1.821
396.83	1.820
397.03	1.826
397.23	1.819
397.44	1.840
397.64	1.818
397.85	1.827
398.05	1.807
398.26	1.807
398.46	1.790
398.67	1.812
398.87	1.822
399.08	1.813
399.28	1.815
399.48	1.831
399.69	1.808
399.89	1.830
400.10	1.843
400.30	1.838
400.51	1.839
400.71	1.860
400.92	1.849
401.12	1.855
401.32	1.841
401.53	1.830
401.73	1.848
401.94	1.875
402.14	1.843
402.35	1.840
402.55	1.849
402.75	1.849
402.96	1.845
403.16	1.851
403.37	1.828
403.57	1.849
403.78	1.852
403.98	1.833
404.18	1.817
404.39	1.816
404.59	1.816
404.80	1.810
405.00	1.806
405.21	1.798
405.41	1.781
405.61	1.803
405.82	1.803
406.02	1.799
406.23	1.810
406.43	1.827
406.63	1.852
406.84	1.852
407.04	1.859
407.25	1.877
407.45	1.889
407.65	1.896
407.86	1.863
408.06	1.838
408.27	1.841
408.47	1.842
408.67	1.813
408.88	1.781
409.08	1.770
409.29	1.783
409.49	1.769
409.69	1.768
409.90	1.794
410.10	1.802
410.31	1.812
410.51	1.827
410.71	1.819
410.92	1.821
411.12	1.832
411.33	1.838
411.53	1.830
411.73	1.813
411.94	1.835
412.14	1.812
412.34	1.823
412.55	1.843
412.75	1.828
412.96	1.833
413.16	1.846
413.36	1.848
413.57	1.846
413.77	1.834
413.97	1.872
414.18	1.868
414.38	1.886
414.59	1.898
414.79	1.887
414.99	1.881
415.20	1.877
415.40	1.897
415.60	1.898
415.81	1.891
416.01	1.892
416.21	1.870
416.42	1.855
416.62	1.837
416.83	1.816
417.03	1.804
417.23	1.806
417.44	1.807
417.64	1.791
417.84	1.780
418.05	1.785
418.25	1.795
418.45	1.791
418.66	1.779
418.86	1.775
419.06	1.788
419.27	1.796
419.47	1.802
419.67	1.796
419.88	1.790
420.08	1.788
420.28	1.781
420.49	1.774
420.69	1.774
420.89	1.780
421.10	1.794
421.30	1.788
421.50	1.786
421.71	1.778
421.91	1.777
422.11	1.775
422.32	1.787
422.52	1.783
422.72	1.793
422.93	1.810
423.13	1.818
423.33	1.814
423.54	1.815
423.74	1.810
423.94	1.814
424.15	1.818
424.35	1.834
424.55	1.832
424.76	1.845
424.96	1.839
425.16	1.843
425.36	1.824
425.57	1.822
425.77	1.824
425.97	1.829
426.18	1.830
426.38	1.833
426.58	1.832
426.79	1.850
426.99	1.850
427.19	1.858
427.39	1.849
427.60	1.878
427.80	1.903
428.00	1.930
428.21	1.942
428.41	1.958
428.61	1.958
428.82	1.955
429.02	1.945
429.22	1.945
429.42	1.937
429.63	1.935
429.83	1.930
430.03	1.926
430.24	1.904
430.44	1.903
430.64	1.903
430.84	1.900
431.05	1.905
431.25	1.912
431.45	1.913
431.65	1.908
431.86	1.896
432.06	1.894
432.26	1.889
432.47	1.884
432.67	1.888
432.87	1.895
433.07	1.899
433.28	1.903
433.48	1.903
433.68	1.904
433.88	1.917
434.09	1.937
434.29	1.937
434.49	1.938
434.69	1.940
434.90	1.942
435.10	1.935
435.30	1.940
435.51	1.944
435.71	1.930
435.91	1.934
436.11	1.936
436.32	1.925
436.52	1.927
436.72	1.918
436.92	1.928
437.13	1.924
437.33	1.915
437.53	1.910
437.73	1.892
437.93	1.895
438.14	1.903
438.34	1.889
438.54	1.890
438.74	1.908
438.95	1.905
439.15	1.904
439.35	1.899
439.55	1.899
439.76	1.915
439.96	1.932
440.16	1.934
440.36	1.932
440.56	1.941
440.77	1.938
440.97	1.922
441.17	1.932
441.37	1.926
441.58	1.937
441.78	1.946
441.98	1.947
442.18	1.935
442.38	1.940
442.59	1.938
442.79	1.942
442.99	1.947
443.19	1.951
443.40	1.949
443.60	1.969
443.80	1.957
444.00	1.965
444.20	1.946
444.41	1.934
444.61	1.946
444.81	1.955
445.01	1.957
445.21	1.966
445.42	1.960
445.62	1.960
445.82	1.953
446.02	1.958
446.22	1.944
446.43	1.945
446.63	1.952
446.83	1.951
447.03	1.948
447.23	1.950
447.44	1.950
447.64	1.959
447.84	1.964
448.04	1.963
448.24	1.963
448.44	1.972
448.65	1.973
448.85	1.986
449.05	1.985
449.25	1.982
449.45	1.992
449.65	1.992
449.86	2.002
450.06	2.008
450.26	2.009
450.46	2.017
450.66	2.018
450.87	2.037
451.07	2.029
451.27	2.019
451.47	2.017
451.67	1.993
451.87	1.998
452.08	1.984
452.28	1.975
452.48	1.978
452.68	1.974
452.88	1.971
453.08	1.966
453.28	1.963
453.49	1.984
453.69	1.989
453.89	1.999
454.09	1.990
454.29	1.992
454.49	2.003
454.70	2.012
454.90	2.013
455.10	2.022
455.30	2.018
455.50	2.028
455.70	2.017
455.90	2.019
456.11	2.011
456.31	2.018
456.51	2.020
456.71	2.016
456.91	2.013
457.11	2.016
457.31	2.013
457.51	2.026
457.72	2.021
457.92	2.019
458.12	2.011
458.32	2.023
458.52	2.040
458.72	2.057
458.92	2.044
459.12	2.040
459.33	2.032
459.53	2.039
459.73	2.047
459.93	2.053
460.13	2.062
460.33	2.073
460.53	2.069
460.73	2.054
460.93	2.054
461.14	2.071
461.34	2.082
461.54	2.096
461.74	2.099
461.94	2.099
462.14	2.106
462.34	2.100
462.54	2.097
462.74	2.101
462.95	2.097
463.15	2.096
463.35	2.094
463.55	2.095
463.75	2.094
463.95	2.096
464.15	2.087
464.35	2.092
464.55	2.092
464.75	2.092
464.95	2.102
465.16	2.117
465.36	2.110
465.56	2.106
465.76	2.114
465.96	2.123
466.16	2.140
466.36	2.149
466.56	2.137
466.76	2.141
466.96	2.151
467.16	2.148
467.36	2.146
467.57	2.145
467.77	2.150
467.97	2.146
468.17	2.150
468.37	2.131
468.57	2.144
468.77	2.154
468.97	2.153
469.17	2.151
469.37	2.158
469.57	2.162
469.77	2.176
469.97	2.175
470.17	2.182
470.37	2.174
470.57	2.181
470.78	2.160
470.98	2.165
471.18	2.168
471.38	2.170
471.58	2.179
471.78	2.191
471.98	2.184
472.18	2.186
472.38	2.173
472.58	2.193
472.78	2.200
472.98	2.210
473.18	2.207
473.38	2.217
473.58	2.221
473.78	2.213
473.98	2.213
474.18	2.239
474.38	2.240
474.58	2.257
474.78	2.253
474.98	2.262
475.18	2.275
475.38	2.287
475.58	2.277
475.79	2.284
475.99	2.281
476.19	2.281
476.39	2.262
476.59	2.270
476.79	2.276
476.99	2.273
477.19	2.259
477.39	2.245
477.59	2.241
477.79	2.248
477.99	2.240
478.19	2.236
478.39	2.246
478.59	2.257
478.79	2.267
478.99	2.260
479.19	2.272
479.39	2.286
479.59	2.300
479.79	2.309
479.99	2.317
480.19	2.326
480.39	2.330
480.59	2.326
480.79	2.324
480.99	2.317
481.19	2.320
481.39	2.313
481.59	2.311
481.79	2.320
481.99	2.322
482.19	2.321
482.39	2.323
482.59	2.331
482.79	2.330
482.99	2.326
483.19	2.344
483.39	2.380
483.59	2.406
483.79	2.410
483.99	2.399
484.19	2.385
484.39	2.384
484.58	2.387
484.78	2.387
484.98	2.388
485.18	2.396
485.38	2.390
485.58	2.363
485.78	2.336
485.98	2.327
486.18	2.340
486.38	2.359
486.58	2.365
486.78	2.356
486.98	2.364
487.18	2.377
487.38	2.380
487.58	2.390
487.78	2.397
487.98	2.400
488.18	2.406
488.38	2.404
488.58	2.404
488.78	2.403
488.98	2.415
489.18	2.419
489.37	2.418
489.57	2.424
489.77	2.423
489.97	2.428
490.17	2.445
490.37	2.447
490.57	2.455
490.77	2.462
490.97	2.471
491.17	2.472
491.37	2.475
491.57	2.479
491.77	2.476
491.97	2.480
492.17	2.479
492.37	2.478
492.56	2.478
492.76	2.481
492.96	2.487
493.16	2.495
493.36	2.503
493.56	2.508
493.76	2.506
493.96	2.525
494.16	2.526
494.36	2.534
494.56	2.539
494.76	2.552
494.95	2.555
495.15	2.571
495.35	2.574
495.55	2.577
495.75	2.580
495.95	2.592
496.15	2.593
496.35	2.603
496.55	2.610
496.75	2.609
496.95	2.615
497.14	2.619
497.34	2.614
497.54	2.618
497.74	2.627
497.94	2.633
498.14	2.637
498.34	2.636
498.54	2.639
498.74	2.642
498.93	2.649
499.13	2.652
499.33	2.668
499.53	2.669
499.73	2.682
499.93	2.686
500.13	2.701
500.33	2.710
500.53	2.722
500.72	2.730
500.92	2.731
501.12	2.736
501.32	2.734
501.52	2.728
501.72	2.734
501.92	2.726
502.12	2.727
502.31	2.725
502.51	2.726
502.71	2.730
502.91	2.735
503.11	2.743
503.31	2.754
503.51	2.760
503.70	2.761
503.90	2.778
504.10	2.788
504.30	2.788
504.50	2.790
504.70	2.799
504.90	2.799
505.09	2.802
505.29	2.800
505.49	2.795
505.69	2.815
505.89	2.823
506.09	2.813
506.29	2.817
506.48	2.824
506.68	2.831
506.88	2.838
507.08	2.840
507.28	2.853
507.48	2.863
507.67	2.872
507.87	2.863
508.07	2.869
508.27	2.881
508.47	2.882
508.67	2.889
508.86	2.893
509.06	2.883
509.26	2.893
509.46	2.895
509.66	2.895
509.85	2.911
510.05	2.925
510.25	2.925
510.45	2.930
510.65	2.934
510.85	2.935
511.04	2.949
511.24	2.975
511.44	2.988
511.64	2.987
511.84	3.003
512.03	3.001
512.23	3.003
512.43	3.018
512.63	3.021
512.83	3.040
513.02	3.049
513.22	3.048
513.42	3.048
513.62	3.055
513.82	3.063
514.01	3.068
514.21	3.078
514.41	3.081
514.61	3.079
514.81	3.076
515.00	3.070
515.20	3.075
515.40	3.089
515.60	3.085
515.80	3.091
515.99	3.089
516.19	3.083
516.39	3.080
516.59	3.096
516.78	3.100
516.98	3.123
517.18	3.117
517.38	3.120
517.58	3.112
517.77	3.124
517.97	3.119
518.17	3.128
518.37	3.146
518.56	3.152
518.76	3.154
518.96	3.165
519.16	3.164
519.36	3.180
519.55	3.183
519.75	3.196
519.95	3.205
520.15	3.208
520.34	3.222
520.54	3.222
520.74	3.227
520.94	3.228
521.13	3.241
521.33	3.242
521.53	3.240
521.73	3.252
521.92	3.245
522.12	3.260
522.32	3.274
522.52	3.280
522.71	3.293
522.91	3.309
523.11	3.320
523.31	3.321
523.50	3.324
523.70	3.338
523.90	3.347
524.09	3.355
524.29	3.355
524.49	3.366
524.69	3.363
524.88	3.369
525.08	3.364
525.28	3.363
525.48	3.363
525.67	3.377
525.87	3.383
526.07	3.383
526.26	3.389
526.46	3.392
526.66	3.404
526.86	3.416
527.05	3.424
527.25	3.429
527.45	3.443
527.64	3.441
527.84	3.446
528.04	3.455
528.24	3.463
528.43	3.474
528.63	3.479
528.83	3.473
529.02	3.474
529.22	3.473
529.42	3.475
529.62	3.476
529.81	3.481
530.01	3.480
530.21	3.475
530.40	3.471
530.60	3.464
530.80	3.464
530.99	3.475
531.19	3.479
531.39	3.480
531.58	3.486
531.78	3.493
531.98	3.506
532.18	3.524
532.37	3.542
532.57	3.556
532.77	3.566
532.96	3.562
533.16	3.560
533.36	3.568
533.55	3.583
533.75	3.587
533.95	3.593
534.14	3.591
534.34	3.591
534.54	3.597
534.73	3.610
534.93	3.623
535.13	3.643
535.32	3.653
535.52	3.658
535.72	3.662
535.91	3.677
536.11	3.682
536.31	3.694
536.50	3.711
536.70	3.708
536.90	3.714
537.09	3.722
537.29	3.729
537.48	3.742
537.68	3.754
537.88	3.759
538.07	3.765
538.27	3.777
538.47	3.785
538.66	3.787
538.86	3.803
539.06	3.804
539.25	3.809
539.45	3.812
539.65	3.822
539.84	3.844
540.04	3.855
540.23	3.869
540.43	3.869
540.63	3.876
540.82	3.873
541.02	3.874
541.22	3.876
541.41	3.880
541.61	3.876
541.80	3.878
542.00	3.867
542.20	3.866
542.39	3.866
542.59	3.870
542.79	3.873
542.98	3.879
543.18	3.886
543.37	3.897
543.57	3.903
543.77	3.923
543.96	3.923
544.16	3.935
544.35	3.946
544.55	3.956
544.75	3.965
544.94	3.967
545.14	3.984
545.33	3.996
545.53	3.999
545.73	4.003
545.92	4.006
546.12	4.018
546.31	4.025
546.51	4.022
546.71	4.022
546.90	4.032
547.10	4.046
547.29	4.047
547.49	4.056
547.69	4.067
547.88	4.074
548.08	4.076
548.27	4.085
548.47	4.093
548.66	4.108
548.86	4.122
549.06	4.121
549.25	4.134
549.45	4.141
549.64	4.151
549.84	4.162
550.03	4.175
550.23	4.181
550.43	4.192
550.62	4.206
550.82	4.213
551.01	4.221
551.21	4.240
551.40	4.241
551.60	4.251
551.80	4.250
551.99	4.254
552.19	4.267
552.38	4.271
552.58	4.270
552.77	4.271
552.97	4.277
553.16	4.265
553.36	4.262
553.56	4.275
553.75	4.275
553.95	4.283
554.14	4.281
554.34	4.292
554.53	4.301
554.73	4.311
554.92	4.318
555.12	4.330
555.31	4.348
555.51	4.385
555.70	4.382
555.90	4.387
556.10	4.398
556.29	4.407
556.49	4.406
556.68	4.417
556.88	4.420
557.07	4.428
557.27	4.446
557.46	4.456
557.66	4.441
557.85	4.458
558.05	4.475
558.24	4.478
558.44	4.494
558.63	4.490
558.83	4.485
559.02	4.499
559.22	4.496
559.41	4.486
559.61	4.488
559.80	4.495
560.00	4.492
560.19	4.497
560.39	4.501
560.58	4.501
560.78	4.514
560.97	4.523
561.17	4.529
561.36	4.540
561.56	4.552
561.75	4.568
561.95	4.569
562.14	4.579
562.34	4.588
562.53	4.591
562.73	4.591
562.92	4.592
563.12	4.621
563.31	4.609
563.51	4.613
563.70	4.618
563.90	4.624
564.09	4.635
564.29	4.639
564.48	4.631
564.68	4.652
564.87	4.670
565.07	4.672
565.26	4.663
565.45	4.678
565.65	4.687
565.84	4.693
566.04	4.690
566.23	4.687
566.43	4.701
566.62	4.711
566.82	4.704
567.01	4.694
567.21	4.702
567.40	4.705
567.60	4.719
567.79	4.725
567.98	4.734
568.18	4.749
568.37	4.766
568.57	4.761
568.76	4.770
568.96	4.778
569.15	4.791
569.35	4.819
569.54	4.830
569.73	4.830
569.93	4.839
570.12	4.837
570.32	4.842
570.51	4.841
570.71	4.854
570.90	4.856
571.09	4.873
571.29	4.887
571.48	4.883
571.68	4.891
571.87	4.893
572.07	4.908
572.26	4.919
572.45	4.929
572.65	4.934
572.84	4.941
573.04	4.965
573.23	4.961
573.43	4.963
573.62	4.973
573.81	4.992
574.01	5.009
574.20	4.997
574.40	4.998
574.59	4.990
574.78	4.992
574.98	4.995
575.17	4.986
575.37	4.992
575.56	5.000
575.75	5.000
575.95	5.003
576.14	4.997
576.34	5.010
576.53	5.014
576.72	5.018
576.92	5.041
577.11	5.055
577.31	5.067
577.50	5.071
577.69	5.085
577.89	5.100
578.08	5.099
578.28	5.114
578.47	5.122
578.66	5.141
578.86	5.164
579.05	5.163
579.24	5.171
579.44	5.179
579.63	5.183
579.83	5.173
580.02	5.173
580.21	5.169
580.41	5.180
580.60	5.195
580.79	5.192
580.99	5.196
581.18	5.202
581.38	5.196
581.57	5.204
581.76	5.222
581.96	5.240
582.15	5.246
582.34	5.258
582.54	5.263
582.73	5.260
582.92	5.267
583.12	5.273
583.31	5.275
583.50	5.280
583.70	5.281
583.89	5.281
584.08	5.283
584.28	5.287
584.47	5.293
584.66	5.302
584.86	5.311
585.05	5.321
585.24	5.324
585.44	5.338
585.63	5.359
585.82	5.366
586.02	5.373
586.21	5.381
586.40	5.380
586.60	5.394
586.79	5.385
586.98	5.382
587.18	5.387
587.37	5.399
587.56	5.386
587.76	5.393
587.95	5.412
588.14	5.424
588.34	5.423
588.53	5.435
588.72	5.442
588.92	5.459
589.11	5.479
589.30	5.483
589.50	5.493
589.69	5.516
589.88	5.508
590.07	5.505
590.27	5.513
590.46	5.519
590.65	5.528
590.85	5.536
591.04	5.536
591.23	5.533
591.43	5.539
591.62	5.551
591.81	5.544
592.00	5.552
592.20	5.559
592.39	5.567
592.58	5.590
592.78	5.589
592.97	5.587
593.16	5.595
593.35	5.608
593.55	5.610
593.74	5.602
593.93	5.617
594.13	5.633
594.32	5.637
594.51	5.653
594.70	5.659
594.90	5.661
595.09	5.657
595.28	5.666
595.47	5.672
595.67	5.686
595.86	5.694
596.05	5.701
596.24	5.706
596.44	5.703
596.63	5.696
596.82	5.687
597.02	5.687
597.21	5.705
597.40	5.714
597.59	5.703
597.79	5.696
597.98	5.693
598.17	5.692
598.36	5.693
598.56	5.708
598.75	5.705
598.94	5.721
599.13	5.744
599.32	5.762
599.52	5.754
599.71	5.794
599.90	5.806
600.09	5.823
600.29	5.845
600.48	5.854
600.67	5.850
600.86	5.870
601.06	5.867
601.25	5.881
601.44	5.872
601.63	5.896
601.82	5.898
602.02	5.906
602.21	5.903
602.40	5.912
602.59	5.922
602.79	5.939
602.98	5.954
603.17	5.971
603.36	5.967
603.55	5.973
603.75	5.969
603.94	5.967
604.13	5.975
604.32	5.995
604.51	5.993
604.71	5.999
604.90	6.004
605.09	5.999
605.28	5.999
605.47	6.007
605.67	6.018
605.86	6.032
606.05	6.035
606.24	6.052
606.43	6.055
606.63	6.060
606.82	6.056
607.01	6.068
607.20	6.071
607.39	6.083
607.59	6.074
607.78	6.070
607.97	6.074
608.16	6.082
608.35	6.091
608.54	6.091
608.74	6.084
608.93	6.106
609.12	6.104
609.31	6.119
609.50	6.129
609.69	6.160
609.89	6.170
610.08	6.179
610.27	6.188
610.46	6.187
610.65	6.201
610.84	6.219
611.04	6.208
611.23	6.216
611.42	6.212
611.61	6.205
611.80	6.206
611.99	6.208
612.19	6.198
612.38	6.203
612.57	6.208
612.76	6.204
612.95	6.223
613.14	6.240
613.33	6.245
613.53	6.254
613.72	6.283
613.91	6.273
614.10	6.291
614.29	6.312
614.48	6.307
614.67	6.315
614.86	6.332
615.06	6.325
615.25	6.332
615.44	6.361
615.63	6.369
615.82	6.360
616.01	6.371
616.20	6.362
616.39	6.350
616.59	6.367
616.78	6.375
616.97	6.376
617.16	6.388
617.35	6.398
617.54	6.372
617.73	6.393
617.92	6.416
618.12	6.409
618.31	6.408
618.50	6.441
618.69	6.451
618.88	6.451
619.07	6.458
619.26	6.452
619.45	6.464
619.64	6.475
619.83	6.465
620.03	6.460
620.22	6.478
620.41	6.501
620.60	6.485
620.79	6.479
620.98	6.491
621.17	6.494
621.36	6.520
621.55	6.542
621.74	6.565
621.93	6.585
622.12	6.596
622.32	6.604
622.51	6.600
622.70	6.624
622.89	6.638
623.08	6.643
623.27	6.662
623.46	6.658
623.65	6.628
623.84	6.627
624.03	6.642
624.22	6.648
624.41	6.642
624.60	6.654
624.79	6.654
624.99	6.675
625.18	6.673
625.37	6.687
625.56	6.686
625.75	6.709
625.94	6.725
626.13	6.721
626.32	6.724
626.51	6.752
626.70	6.750
626.89	6.751
627.08	6.742
627.27	6.767
627.46	6.751
627.65	6.763
627.84	6.763
628.03	6.758
628.22	6.773
628.41	6.783
628.60	6.765
628.79	6.784
628.98	6.789
629.17	6.791
629.37	6.800
629.56	6.812
629.75	6.822
629.94	6.831
630.13	6.844
630.32	6.838
630.51	6.839
630.70	6.868
630.89	6.873
631.08	6.889
631.27	6.901
631.46	6.899
631.65	6.913
631.84	6.932
632.03	6.946
632.22	6.952
632.41	6.975
632.60	6.990
632.79	6.985
632.98	6.979
633.17	6.991
633.36	7.012
633.55	7.021
633.74	7.021
633.93	7.012
634.12	7.013
634.31	7.022
634.50	7.028
634.69	7.036
634.88	7.060
635.07	7.080
635.26	7.068
635.45	7.058
635.64	7.063
635.83	7.075
636.02	7.071
636.21	7.093
636.40	7.091
636.59	7.078
636.78	7.092
636.96	7.111
637.15	7.110
637.34	7.136
637.53	7.150
637.72	7.147
637.91	7.157
638.10	7.172
638.29	7.173
638.48	7.186
638.67	7.184
638.86	7.183
639.05	7.168
639.24	7.187
639.43	7.216
639.62	7.222
639.81	7.240
640.00	7.233
640.19	7.249
640.38	7.256
640.57	7.255
640.76	7.280
640.95	7.278
641.14	7.278
641.32	7.299
641.51	7.300
641.70	7.313
641.89	7.309
642.08	7.326
642.27	7.332
642.46	7.322
642.65	7.312
642.84	7.323
643.03	7.335
643.22	7.343
643.41	7.347
643.60	7.338
643.79	7.352
643.98	7.354
644.16	7.363
644.35	7.361
644.54	7.366
644.73	7.401
644.92	7.420
645.11	7.424
645.30	7.432
645.49	7.428
645.68	7.428
645.87	7.418
646.06	7.434
646.24	7.455
646.43	7.475
646.62	7.494
646.81	7.500
647.00	7.501
647.19	7.504
647.38	7.525
647.57	7.531
647.76	7.537
647.95	7.560
648.13	7.581
648.32	7.578
648.51	7.590
648.70	7.584
648.89	7.601
649.08	7.615
649.27	7.632
649.46	7.615
649.65	7.606
649.83	7.616
650.02	7.608
650.21	7.612
650.40	7.605
650.59	7.589
650.78	7.608
650.97	7.615
651.16	7.597
651.34	7.587
651.53	7.603
651.72	7.614
651.91	7.605
652.10	7.637
652.29	7.653
652.48	7.670
652.66	7.696
652.85	7.719
653.04	7.717
653.23	7.723
653.42	7.744
653.61	7.746
653.80	7.759
653.98	7.766
654.17	7.744
654.36	7.731
654.55	7.731
654.74	7.746
654.93	7.749
655.11	7.739
655.30	7.765
655.49	7.767
655.68	7.786
655.87	7.770
656.06	7.794
656.24	7.823
656.43	7.823
656.62	7.852
656.81	7.824
657.00	7.841
657.19	7.862
657.37	7.858
657.56	7.865
657.75	7.816
657.94	7.865
658.13	7.891
658.31	7.891
658.50	7.899
658.69	7.893
658.88	7.909
659.07	7.896
659.26	7.896
659.44	7.897
659.63	7.923
659.82	7.979
660.01	7.974
660.20	7.964
660.38	7.975
660.57	7.997
660.76	7.998
660.95	8.005
661.14	8.018
661.32	8.013
661.51	8.021
661.70	8.016
661.89	8.021
662.08	8.030
662.26	8.041
662.45	8.005
662.64	7.989
662.83	8.004
663.01	8.039
663.20	8.044
663.39	8.070
663.58	8.085
663.77	8.068
663.95	8.089
664.14	8.095
664.33	8.123
664.52	8.183
664.70	8.205
664.89	8.212
665.08	8.188
665.27	8.197
665.45	8.201
665.64	8.215
665.83	8.257
666.02	8.262
666.20	8.258
666.39	8.233
666.58	8.225
666.77	8.219
666.95	8.219
667.14	8.238
667.33	8.263
667.52	8.279
667.70	8.288
667.89	8.268
668.08	8.262
668.27	8.278
668.45	8.293
668.64	8.300
668.83	8.321
669.02	8.314
669.20	8.334
669.39	8.301
669.58	8.299
669.77	8.315
669.95	8.325
670.14	8.328
670.33	8.317
670.51	8.318
670.70	8.340
670.89	8.370
671.08	8.419
671.26	8.427
671.45	8.440
671.64	8.447
671.82	8.449
672.01	8.461
672.20	8.468
672.39	8.487
672.57	8.514
672.76	8.506
672.95	8.494
673.13	8.491
673.32	8.490
673.51	8.503
673.70	8.507
673.88	8.508
674.07	8.531
674.26	8.554
674.44	8.596
674.63	8.582
674.82	8.589
675.00	8.577
675.19	8.573
675.38	8.568
675.56	8.615
675.75	8.628
675.94	8.638
676.12	8.611
676.31	8.607
676.50	8.602
676.69	8.631
676.87	8.660
677.06	8.655
677.25	8.660
677.43	8.678
677.62	8.682
677.81	8.689
677.99	8.719
678.18	8.738
678.37	8.770
678.55	8.778
678.74	8.764
678.93	8.775
679.11	8.800
679.30	8.791
679.48	8.794
679.67	8.779
679.86	8.801
680.04	8.767
680.23	8.780
680.42	8.759
680.60	8.771
680.79	8.803
680.98	8.788
681.16	8.799
681.35	8.841
681.54	8.820
681.72	8.830
681.91	8.831
682.10	8.864
682.28	8.876
682.47	8.881
682.65	8.867
682.84	8.860
683.03	8.874
683.21	8.872
683.40	8.851
683.59	8.873
683.77	8.878
683.96	8.877
684.14	8.874
684.33	8.873
684.52	8.910
684.70	8.918
684.89	8.911
685.07	8.894
685.26	8.930
685.45	8.946
685.63	8.965
685.82	9.016
686.00	9.025
686.19	9.065
686.38	9.088
686.56	9.092
686.75	9.116
686.93	9.135
687.12	9.153
687.31	9.153
687.49	9.139
687.68	9.146
687.86	9.101
688.05	9.081
688.24	9.060
688.42	9.056
688.61	9.030
688.79	9.021
688.98	9.026
689.17	9.023
689.35	9.034
689.54	9.055
689.72	9.043
689.91	9.051
690.09	9.092
690.28	9.093
690.47	9.098
690.65	9.137
690.84	9.157
691.02	9.157
691.21	9.174
691.39	9.196
691.58	9.218
691.76	9.247
691.95	9.269
692.14	9.279
692.32	9.303
692.51	9.347
692.69	9.359
692.88	9.334
693.06	9.356
693.25	9.360
693.43	9.346
693.62	9.362
693.81	9.372
693.99	9.377
694.18	9.358
694.36	9.341
694.55	9.340
694.73	9.333
694.92	9.355
695.10	9.342
695.29	9.368
695.47	9.362
695.66	9.367
695.84	9.391
696.03	9.397
696.21	9.426
696.40	9.459
696.59	9.427
696.77	9.431
696.96	9.444
697.14	9.466
697.33	9.461
697.51	9.516
697.70	9.538
697.88	9.531
698.07	9.528
698.25	9.538
698.44	9.548
698.62	9.564
698.81	9.570
698.99	9.586
699.18	9.598
699.36	9.606
699.55	9.580
699.73	9.562
699.92	9.555
700.10	9.574
700.29	9.564
700.47	9.554
700.66	9.557
700.84	9.562
701.03	9.558
701.21	9.550
701.40	9.548
701.58	9.556
701.77	9.567
701.95	9.595
702.13	9.591
702.32	9.618
702.50	9.659
702.69	9.673
702.87	9.665
703.06	9.696
703.24	9.701
703.43	9.726
703.61	9.739
703.80	9.739
703.98	9.729
704.17	9.731
704.35	9.726
704.54	9.686
704.72	9.724
704.90	9.775
705.09	9.749
705.27	9.793
705.46	9.809
705.64	9.801
705.83	9.815
706.01	9.842
706.20	9.874
706.38	9.882
706.56	9.915
706.75	9.911
706.93	9.889
707.12	9.932
707.30	9.945
707.49	9.966
707.67	9.999
707.86	10.015
708.04	10.032
708.22	10.009
708.41	10.025
708.59	10.035
708.78	10.011
708.96	10.038
709.14	10.051
709.33	10.058
709.51	10.041
709.70	10.021
709.88	10.021
710.07	10.031
710.25	10.073
710.43	10.086
710.62	10.083
710.80	10.111
710.99	10.139
711.17	10.146
711.35	10.130
711.54	10.145
711.72	10.180
711.91	10.229
712.09	10.225
712.27	10.194
712.46	10.200
712.64	10.202
712.83	10.204
713.01	10.199
713.19	10.210
713.38	10.231
713.56	10.239
713.75	10.234
713.93	10.216
714.11	10.233
714.30	10.252
714.48	10.272
714.66	10.295
714.85	10.307
715.03	10.332
715.22	10.321
715.40	10.315
715.58	10.301
715.77	10.338
715.95	10.371
716.13	10.381
716.32	10.380
716.50	10.364
716.68	10.345
716.87	10.353
717.05	10.311
717.24	10.328
717.42	10.354
717.60	10.375
717.79	10.367
717.97	10.337
718.15	10.351
718.34	10.387
718.52	10.446
718.70	10.461
718.89	10.443
719.07	10.438
719.25	10.447
719.44	10.443
719.62	10.457
719.80	10.432
719.99	10.435
720.17	10.447
720.35	10.462
720.54	10.402
720.72	10.430
720.90	10.460
721.09	10.501
721.27	10.516
721.45	10.514
721.64	10.525
721.82	10.574
722.00	10.596
722.19	10.572
722.37	10.534
722.55	10.594
722.74	10.609
722.92	10.627
723.10	10.628
723.28	10.635
723.47	10.659
723.65	10.687
723.83	10.685
724.02	10.664
724.20	10.691
724.38	10.708
724.57	10.692
724.75	10.687
724.93	10.697
725.11	10.724
725.30	10.708
725.48	10.716
725.66	10.714
725.85	10.719
726.03	10.726
726.21	10.765
726.39	10.808
726.58	10.813
726.76	10.827
726.94	10.844
727.13	10.831
727.31	10.850
727.49	10.883
727.67	10.877
727.86	10.893
728.04	10.973
728.22	10.914
728.40	10.930
728.59	10.927
728.77	10.927
728.95	10.954
729.13	10.975
729.32	10.985
729.50	10.958
729.68	10.992
729.86	11.000
730.05	10.981
730.23	11.032
730.41	11.014
730.59	11.031
730.78	11.049
730.96	11.048
731.14	11.105
731.32	11.119
731.51	11.146
731.69	11.156
731.87	11.154
732.05	11.159
732.24	11.188
732.42	11.220
732.60	11.242
732.78	11.246
732.97	11.236
733.15	11.190
733.33	11.204
733.51	11.222
733.69	11.211
733.88	11.234
734.06	11.272
734.24	11.244
734.42	11.252
734.60	11.233
734.79	11.247
734.97	11.251
735.15	11.287
735.33	11.279
735.52	11.278
735.70	11.279
735.88	11.267
736.06	11.257
736.24	11.258
736.43	11.272
736.61	11.321
736.79	11.345
736.97	11.353
737.15	11.348
737.34	11.359
737.52	11.360
737.70	11.399
737.88	11.434
738.06	11.403
738.24	11.471
738.43	11.457
738.61	11.478
738.79	11.482
738.97	11.525
739.15	11.518
739.33	11.528
739.52	11.552
739.70	11.533
739.88	11.540
740.06	11.543
740.24	11.500
740.42	11.504
740.61	11.500
740.79	11.515
740.97	11.479
741.15	11.520
741.33	11.551
741.51	11.574
741.70	11.574
741.88	11.586
742.06	11.637
742.24	11.665
742.42	11.712
742.60	11.716
742.78	11.732
742.97	11.780
743.15	11.777
743.33	11.787
743.51	11.765
743.69	11.829
743.87	11.851
744.05	11.840
744.24	11.869
744.42	11.852
744.60	11.867
744.78	11.862
744.96	11.921
745.14	11.933
745.32	11.925
745.50	11.941
745.69	11.913
745.87	11.912
746.05	11.935
746.23	11.942
746.41	11.955
746.59	11.931
746.77	11.955
746.95	11.893
747.13	11.864
747.32	11.870
747.50	11.890
747.68	11.947
747.86	11.985
748.04	11.989
748.22	12.010
748.40	12.052
748.58	12.098
748.76	12.097
748.94	12.124
749.13	12.187
749.31	12.188
749.49	12.218
749.67	12.211
749.85	12.201
750.03	12.238
750.21	12.215
750.39	12.223
750.57	12.210
750.75	12.239
750.93	12.204
751.11	12.234
751.30	12.281
751.48	12.289
751.66	12.265
751.84	12.270
752.02	12.264
752.20	12.313
752.38	12.297
752.56	12.379
752.74	12.368
752.92	12.426
753.10	12.437
753.28	12.423
753.46	12.403
753.64	12.447
753.82	12.465
754.00	12.479
754.18	12.495
754.37	12.499
754.55	12.500
754.73	12.504
754.91	12.572
755.09	12.584
755.27	12.616
755.45	12.639
755.63	12.682
755.81	12.713
755.99	12.688
756.17	12.645
756.35	12.641
756.53	12.570
756.71	12.587
756.89	12.550
757.07	12.465
757.25	12.428
757.43	12.399
757.61	12.330
757.79	12.322
757.97	12.361
758.15	12.426
758.33	12.451
758.51	12.529
758.69	12.530
758.87	12.572
759.05	12.629
759.23	12.656
759.41	12.719
759.59	12.752
759.77	12.721
759.95	12.734
760.13	12.700
760.31	12.703
760.49	12.700
760.67	12.745
760.85	12.751
761.03	12.792
761.21	12.799
761.39	12.785
761.57	12.809
761.75	12.848
761.93	12.828
762.11	12.828
762.29	12.829
762.47	12.867
762.65	12.804
762.83	12.777
763.01	12.751
763.19	12.785
763.37	12.805
763.55	12.827
763.73	12.855
763.91	12.900
764.09	12.914
764.27	12.954
764.45	12.923
764.63	12.942
764.81	12.947
764.99	12.957
765.16	12.944
765.34	12.931
765.52	12.926
765.70	12.929
765.88	12.923
766.06	12.928
766.24	12.930
766.42	12.935
766.60	12.956
766.78	12.951
766.96	12.979
767.14	12.996
767.32	13.030
767.50	13.003
767.68	13.001
767.86	13.004
768.03	13.050
768.21	13.044
768.39	13.040
768.57	13.045
768.75	13.080
768.93	13.075
769.11	13.104
769.29	13.091
769.47	13.144
769.65	13.165
769.83	13.206
770.01	13.247
770.19	13.282
770.36	13.357
770.54	13.379
770.72	13.379
770.90	13.356
771.08	13.344
771.26	13.391
771.44	13.457
771.62	13.511
771.80	13.505
771.98	13.456
772.15	13.418
772.33	13.475
772.51	13.524
772.69	13.516
772.87	13.584
773.05	13.614
773.23	13.608
773.41	13.553
773.58	13.474
773.76	13.547
773.94	13.530
774.12	13.534
774.30	13.510
774.48	13.467
774.66	13.500
774.84	13.460
775.01	13.491
775.19	13.534
775.37	13.583
775.55	13.598
775.73	13.561
775.91	13.611
776.09	13.709
776.26	13.653
776.44	13.713
776.62	13.782
776.80	13.755
776.98	13.818
777.16	13.820
777.34	13.854
777.51	13.863
777.69	13.875
777.87	13.878
778.05	13.814
778.23	13.888
778.41	13.859
778.58	13.814
778.76	13.929
778.94	13.904
779.12	13.946
779.30	13.908
779.48	13.941
779.65	13.940
779.83	13.938
780.01	13.973
780.19	13.995
780.37	13.977
780.55	14.052
780.72	14.016
780.90	13.996
781.08	13.986
781.26	14.047
781.44	14.136
781.61	14.145
781.79	14.182
781.97	14.204
782.15	14.134
782.33	14.202
782.50	14.177
782.68	14.218
782.86	14.258
783.04	14.252
783.22	14.235
783.39	14.156
783.57	14.097
783.75	14.051
783.93	14.052
784.11	14.126
784.28	13.950
784.46	13.955
784.64	13.940
784.82	13.962
784.99	13.997
785.17	14.047
785.35	14.060
785.53	14.175
785.71	14.183
785.88	14.250
786.06	14.238
786.24	14.469
786.42	14.468
786.59	14.396
786.77	14.386
786.95	14.370
787.13	14.390
787.30	14.442
787.48	14.449
787.66	14.550
787.84	14.464
788.01	14.488
788.19	14.481
788.37	14.502
788.55	14.549
788.72	14.597
788.90	14.645
789.08	14.619
789.26	14.547
789.43	14.548
789.61	14.471
789.79	14.495
789.97	14.480
790.14	14.482
790.32	14.519
790.50	14.579
790.68	14.593
790.85	14.543
791.03	14.540
791.21	14.595
791.38	14.562
791.56	14.562
791.74	14.630
791.92	14.637
792.09	14.585
792.27	14.606
792.45	14.594
792.62	14.507
792.80	14.596
792.98	14.436
793.16	14.466
793.33	14.491
793.51	14.583
793.69	14.588
793.86	14.559
794.04	14.628
794.22	14.585
794.39	14.645
794.57	14.670
794.75	14.707
794.93	14.953
795.10	14.925
795.28	15.002
795.46	15.092
795.63	15.097
795.81	15.205
795.99	15.131
796.16	15.202
796.34	15.245
796.52	15.212
796.69	15.133
796.87	15.184
797.05	15.246
797.22	15.136
797.40	15.208
797.58	15.255
797.75	15.246
797.93	15.288
798.11	15.348
798.28	15.353
798.46	15.390
798.64	15.413
798.81	15.354
798.99	15.342
799.17	15.422
799.34	15.210
799.52	15.134
799.70	15.155
799.87	15.207
800.05	15.054
800.22	14.979
800.40	15.019
800.58	15.066
800.75	15.076
800.93	15.154
801.11	15.180
801.28	15.397
801.46	15.374
801.63	15.422
801.81	15.455
801.99	15.559
802.16	15.611
802.34	15.662
802.52	15.655
802.69	15.638
802.87	15.606
803.04	15.588
803.22	15.510
803.40	15.480
803.57	15.492
803.75	15.442
803.93	15.349
804.10	15.311
804.28	15.379
804.45	15.420
804.63	15.461
804.81	15.513
804.98	15.567
805.16	15.587
805.33	15.777
805.51	15.828
805.68	15.974
805.86	16.066
806.04	16.061
806.21	16.029
806.39	16.025
806.56	15.991
806.74	15.940
806.92	15.973
807.09	15.925
807.27	15.883
807.44	15.747
807.62	15.670
807.79	15.703
807.97	15.726
808.15	15.744
808.32	15.683
808.50	15.755
808.67	15.813
808.85	15.806
809.02	15.869
809.20	15.791
809.38	15.862
809.55	15.878
809.73	15.862
809.90	15.963
810.08	15.857
810.25	15.855
810.43	15.880
810.60	15.808
810.78	15.786
810.95	15.821
811.13	15.928
811.31	15.901
811.48	16.011
811.66	16.071
811.83	16.074
812.01	16.135
812.18	16.215
812.36	16.137
812.53	16.130
812.71	16.154
812.88	16.178
813.06	16.208
813.23	16.192
813.41	16.236
813.58	16.171
813.76	16.141
813.93	16.043
814.11	16.055
814.28	16.077
814.46	16.149
814.63	16.259
814.81	16.236
814.98	16.202
815.16	16.279
815.33	16.069
815.51	16.185
815.68	16.198
815.86	16.416
816.03	16.419
816.21	16.518
816.38	16.431
816.56	16.317
816.73	16.323
816.91	16.398
817.08	16.502
817.26	16.608
817.43	16.574
817.61	16.541
817.78	16.534
817.96	16.435
818.13	16.453
818.31	16.509
818.48	16.632
818.66	16.691
818.83	16.600
819.01	16.488
819.18	16.532
819.36	16.496
819.53	16.531
819.70	16.466
819.88	16.716
820.05	16.720
820.23	16.838
820.40	16.843
820.58	16.785
820.75	16.895
820.93	16.875
821.10	16.836
821.28	16.895
821.45	16.895
821.62	16.967
821.80	16.909
821.97	16.968
822.15	17.004
822.32	17.078
822.50	17.239
822.67	17.444
822.84	17.498
823.02	17.464
823.19	17.352
823.37	17.238
823.54	17.103
823.72	16.979
823.89	16.849
824.06	16.796
824.24	16.750
824.41	16.692
824.59	16.613
824.76	16.556
824.94	16.506
825.11	16.461
825.28	16.430
825.46	16.436
825.63	16.479
825.81	16.570
825.98	16.597
826.15	16.631
826.33	16.669
826.50	16.698
826.68	16.744
826.85	16.757
827.02	16.801
827.20	16.912
827.37	17.006
827.54	17.135
827.72	17.289
827.89	17.421
828.07	17.434
828.24	17.436
828.41	17.446
828.59	17.405
828.76	17.371
828.94	17.365
829.11	17.310
829.28	17.291
829.46	17.210
829.63	17.109
829.80	17.024
829.98	16.991
830.15	16.940
830.32	16.899
830.50	16.903
830.67	16.973
830.85	17.016
831.02	17.031
831.19	16.985
831.37	17.058
831.54	17.104
831.71	17.190
831.89	17.204
832.06	17.309
832.23	17.378
832.41	17.467
832.58	17.406
832.75	17.450
832.93	17.522
833.10	17.545
833.27	17.569
833.45	17.664
833.62	17.688
833.79	17.825
833.97	17.917
834.14	18.026
834.31	17.979
834.49	18.133
834.66	18.077
834.83	18.087
835.01	18.040
835.18	17.955
835.35	17.925
835.52	17.849
835.70	17.795
835.87	17.722
836.04	17.653
836.22	17.610
836.39	17.525
836.56	17.476
836.74	17.449
836.91	17.445
837.08	17.455
837.25	17.457
837.43	17.511
837.60	17.521
837.77	17.503
837.95	17.576
838.12	17.672
838.29	17.686
838.46	17.716
838.64	17.696
838.81	17.647
838.98	17.682
839.16	17.780
839.33	17.717
839.50	17.779
839.67	18.071
839.85	17.992
840.02	18.059
840.19	18.002
840.36	18.163
840.54	18.240
840.71	18.424
840.88	18.510
841.06	18.376
841.23	18.477
841.40	18.467
841.57	18.360
841.75	18.377
841.92	18.284
842.09	18.334
842.26	18.278
842.44	18.177
842.61	18.068
842.78	18.102
842.95	18.175
843.12	18.164
843.30	18.158
843.47	18.276
843.64	18.285
843.81	18.465
843.99	18.554
844.16	18.746
844.33	18.889
844.50	19.156
844.68	19.079
844.85	18.836
845.02	18.977
845.19	18.878
845.36	18.709
845.54	18.669
845.71	18.601
845.88	18.528
846.05	18.289
846.22	18.555
846.40	18.611
846.57	18.761
846.74	18.896
846.91	18.556
847.08	18.883
847.26	18.982
847.43	19.156
847.60	19.036
847.77	19.130
847.94	19.227
848.12	18.986
848.29	18.765
848.46	18.711
848.63	18.830
848.80	19.274
848.98	19.157
849.15	19.301
849.32	19.237
849.49	19.059
849.66	19.115
849.83	19.192
850.01	19.142
850.18	19.134
850.35	19.110
850.52	19.173
850.69	18.827
850.86	18.679
851.04	18.353
851.21	18.476
851.38	18.616
851.55	18.497
851.72	18.033
851.89	18.023
852.06	18.246
852.24	18.188
852.41	18.340
852.58	18.412
852.75	18.486
852.92	18.832
853.09	19.075
853.26	19.295
853.44	19.386
853.61	19.956
853.78	20.032
853.95	19.874
854.12	19.926
854.29	19.864
854.46	20.149
854.64	20.258
854.81	20.277
854.98	20.069
855.15	19.785
855.32	19.640
855.49	19.615
855.66	19.742
855.83	19.913
856.00	19.987
856.18	20.142
856.35	19.831
856.52	19.916
856.69	20.079
856.86	20.066
857.03	20.291
857.20	20.606
857.37	20.822
857.54	20.940
857.71	20.773
857.89	20.831
858.06	20.488
858.23	20.542
858.40	20.329
858.57	20.282
858.74	20.129
858.91	20.221
859.08	20.244
859.25	20.068
859.42	19.916
859.59	20.007
859.76	20.102
859.94	20.417
860.11	20.375
860.28	20.475
860.45	20.418
860.62	20.389
860.79	20.298
860.96	20.256
861.13	20.006
861.30	19.978
861.47	19.991
861.64	19.767
861.81	19.692
861.98	19.617
862.15	19.561
862.32	19.507
862.49	19.668
862.66	20.122
862.83	19.838
863.01	19.792
863.18	19.659
863.35	19.500
863.52	19.770
863.69	19.399
863.86	19.445
864.03	19.688
864.20	19.709
864.37	19.637
864.54	19.482
864.71	20.172
864.88	20.420
865.05	20.701
865.22	20.749
865.39	20.715
865.56	21.085
865.73	21.522
865.90	21.606
866.07	21.441
866.24	21.414
866.41	21.221
866.58	20.674
866.75	20.436
866.92	20.483
867.09	20.683
867.26	20.645
867.43	20.361
867.60	20.075
867.77	19.993
867.94	20.148
868.11	20.405
868.28	20.492
868.45	20.505
868.62	20.643
868.79	20.556
868.96	20.453
869.13	20.200
869.30	20.376
869.47	20.270
869.64	20.139
869.81	20.102
869.98	20.061
870.15	20.070
870.32	20.123
870.49	19.760
870.66	19.596
870.83	19.377
871.00	19.586
871.16	19.605
871.33	19.947
871.50	19.822
871.67	19.913
871.84	19.800
872.01	19.806
872.18	20.182
872.35	20.965
872.52	21.142
872.69	21.040
872.86	21.186
873.03	21.352
873.20	21.068
873.37	21.382
873.54	21.481
873.71	21.421
873.88	21.183
874.05	21.050
874.21	20.695
874.38	20.610
874.55	20.795
874.72	20.530
874.89	20.511
875.06	20.859
875.23	20.843
875.40	20.495
875.57	20.788
875.74	20.950
875.91	21.050
876.08	20.926
876.24	20.879
876.41	20.913
876.58	21.243
876.75	21.235
876.92	20.957
877.09	21.054
877.26	21.601
877.43	21.310
877.60	21.272
877.77	20.931
877.93	21.191
878.10	21.334
878.27	21.418
878.44	21.175
878.61	21.216
878.78	21.236
878.95	21.062
879.12	20.833
879.28	21.024
879.45	21.288
879.62	21.586
879.79	21.334
879.96	21.576
880.13	21.497
880.30	21.576
880.47	21.434
880.63	21.619
880.80	21.552
880.97	21.753
881.14	21.683
881.31	21.608
881.48	21.457
881.65	21.803
881.81	21.840
881.98	22.140
882.15	22.281
882.32	22.395
882.49	22.366
882.66	22.304
882.82	22.131
882.99	22.048
883.16	21.933
883.33	21.844
883.50	21.722
883.67	21.631
883.83	21.536
884.00	21.451
884.17	21.356
884.34	21.259
884.51	21.202
884.68	21.170
884.84	21.106
885.01	21.108
885.18	21.112
885.35	21.112
885.52	21.130
885.68	21.141
885.85	21.168
886.02	21.235
886.19	20.841
886.36	21.374
886.53	21.622
886.69	21.703
>>>>>End Spectral Data<<<<<
