OOIBase32 Version 2.0.6.5 Data File
++++++++++++++++++++++++++++++++++++
Date: 03-24-2011, 10:56:15
User: Valued Ocean Optics Customer
Spectrometer Serial Number: USB4C01507
Spectrometer Channel: Master
Integration Time (msec): 46
Spectra Averaged: 30
Boxcar Smoothing: 5
Correct for Electrical Dark: Enabled
Time Normalized: Disabled
Dual-beam Reference: Disabled
Reference Channel: Master
Temperature: Not acquired
Spectrometer Type: S4000
ADC Type: USB4000
Number of Pixels in File: 3648
Graph Title: 
>>>>>Begin Spectral Data<<<<<
179.17	1117.626
179.39	3152.459
179.60	-59.956
179.82	-91.103
180.03	542.468
180.24	150.596
180.46	4.177
180.67	266.728
180.89	112.871
181.10	-266.454
181.31	90.294
181.53	-48.561
181.74	4.506
181.96	335.226
182.17	65.462
182.39	40.096
182.60	43.848
182.81	159.384
183.03	-51.085
183.24	-140.950
183.46	14.948
183.67	17.594
183.88	3.567
184.10	17.461
184.31	26.399
184.53	31.822
184.74	27.347
184.96	27.195
185.17	18.627
185.38	18.764
185.60	28.599
185.81	30.882
186.03	34.110
186.24	42.236
186.45	42.303
186.67	40.111
186.88	43.166
187.10	40.988
187.31	37.772
187.52	36.923
187.74	40.749
187.95	37.594
188.17	30.474
188.38	28.556
188.59	25.400
188.81	18.463
189.02	11.836
189.24	3.858
189.45	8.854
189.66	14.480
189.88	11.952
190.09	14.050
190.30	13.212
190.52	16.886
190.73	13.608
190.95	19.074
191.16	24.800
191.37	29.859
191.59	30.661
191.80	29.438
192.02	27.697
192.23	37.473
192.44	35.783
192.66	35.016
192.87	26.593
193.08	28.492
193.30	22.174
193.51	21.868
193.73	27.088
193.94	24.166
194.15	26.220
194.37	26.839
194.58	24.335
194.79	14.469
195.01	16.016
195.22	19.667
195.44	20.531
195.65	24.062
195.86	24.383
196.08	19.120
196.29	19.860
196.50	15.670
196.72	17.491
196.93	16.721
197.14	15.792
197.36	18.661
197.57	11.851
197.79	11.598
198.00	5.236
198.21	5.552
198.43	9.403
198.64	13.634
198.85	14.315
199.07	9.896
199.28	9.902
199.49	14.200
199.71	11.202
199.92	22.314
200.13	21.788
200.35	28.263
200.56	17.613
200.78	11.183
200.99	0.657
201.20	2.491
201.42	4.899
201.63	1.572
201.84	-0.408
202.06	2.082
202.27	-0.683
202.48	1.309
202.70	-3.914
202.91	2.144
203.12	3.769
203.34	7.290
203.55	9.438
203.76	7.573
203.98	11.034
204.19	12.577
204.40	12.841
204.62	12.360
204.83	8.327
205.04	7.193
205.26	11.451
205.47	12.483
205.68	14.201
205.90	12.137
206.11	13.760
206.32	13.272
206.54	16.136
206.75	12.782
206.96	9.493
207.18	15.501
207.39	14.585
207.60	18.249
207.82	17.734
208.03	21.131
208.24	20.101
208.45	23.562
208.67	19.055
208.88	18.466
209.09	16.270
209.31	19.103
209.52	15.266
209.73	18.529
209.95	15.492
210.16	17.172
210.37	13.876
210.59	13.439
210.80	11.616
211.01	15.091
211.23	13.432
211.44	13.053
211.65	11.717
211.86	11.809
212.08	11.574
212.29	9.163
212.50	5.766
212.72	1.023
212.93	1.937
213.14	3.551
213.36	0.773
213.57	2.879
213.78	5.443
213.99	8.850
214.21	12.603
214.42	15.915
214.63	18.051
214.85	17.986
215.06	23.593
215.27	24.937
215.49	23.473
215.70	24.859
215.91	22.330
216.12	23.098
216.34	22.065
216.55	18.765
216.76	17.029
216.98	14.009
217.19	15.206
217.40	15.504
217.61	14.113
217.83	14.628
218.04	14.937
218.25	14.767
218.47	13.324
218.68	12.507
218.89	12.584
219.10	13.306
219.32	11.640
219.53	11.700
219.74	12.319
219.95	13.171
220.17	12.518
220.38	11.422
220.59	10.710
220.81	11.167
221.02	13.451
221.23	14.499
221.44	12.524
221.66	14.933
221.87	14.682
222.08	13.922
222.29	13.357
222.51	14.025
222.72	14.762
222.93	15.965
223.14	15.741
223.36	15.831
223.57	15.338
223.78	15.851
223.99	15.035
224.21	15.784
224.42	14.756
224.63	14.302
224.84	13.426
225.06	13.498
225.27	13.878
225.48	13.777
225.69	12.839
225.91	12.736
226.12	12.368
226.33	13.018
226.54	12.605
226.76	12.823
226.97	12.922
227.18	12.714
227.39	12.477
227.61	12.417
227.82	12.388
228.03	12.337
228.24	12.244
228.46	12.353
228.67	12.190
228.88	12.207
229.09	11.996
229.31	11.954
229.52	11.984
229.73	12.103
229.94	11.979
230.16	12.048
230.37	12.046
230.58	12.118
230.79	12.025
231.00	12.293
231.22	12.413
231.43	12.654
231.64	12.699
231.85	12.722
232.07	12.121
232.28	12.326
232.49	11.954
232.70	11.693
232.91	11.851
233.13	11.761
233.34	11.418
233.55	11.403
233.76	11.587
233.98	11.624
234.19	11.550
234.40	11.829
234.61	11.608
234.82	11.568
235.04	11.519
235.25	11.380
235.46	11.309
235.67	11.384
235.88	11.035
236.10	10.622
236.31	10.293
236.52	10.384
236.73	10.603
236.94	10.594
237.16	10.537
237.37	10.682
237.58	10.273
237.79	10.159
238.01	9.812
238.22	9.634
238.43	10.104
238.64	10.683
238.85	10.472
239.06	10.287
239.28	9.919
239.49	10.223
239.70	9.958
239.91	10.050
240.12	10.079
240.34	10.105
240.55	10.353
240.76	10.185
240.97	9.855
241.18	9.748
241.40	9.662
241.61	9.697
241.82	9.515
242.03	9.665
242.24	9.545
242.45	9.523
242.67	9.523
242.88	9.441
243.09	9.325
243.30	9.255
243.51	9.528
243.73	9.577
243.94	9.584
244.15	9.671
244.36	9.509
244.57	9.833
244.78	9.645
245.00	9.483
245.21	9.261
245.42	9.187
245.63	9.118
245.84	9.045
246.05	8.956
246.27	9.004
246.48	8.993
246.69	9.000
246.90	8.943
247.11	8.927
247.32	8.933
247.54	8.950
247.75	8.925
247.96	8.956
248.17	8.938
248.38	9.024
248.59	8.951
248.81	8.935
249.02	8.881
249.23	8.837
249.44	8.744
249.65	8.847
249.86	8.758
250.07	9.129
250.29	8.979
250.50	8.651
250.71	8.454
250.92	8.352
251.13	8.320
251.34	8.453
251.55	8.347
251.77	8.465
251.98	8.234
252.19	8.352
252.40	8.160
252.61	8.202
252.82	8.358
253.03	8.492
253.25	8.664
253.46	8.690
253.67	8.692
253.88	8.940
254.09	9.019
254.30	9.271
254.51	9.080
254.73	9.191
254.94	9.365
255.15	9.308
255.36	8.949
255.57	8.645
255.78	8.297
255.99	8.010
256.20	7.997
256.42	7.918
256.63	7.827
256.84	7.881
257.05	7.782
257.26	7.619
257.47	7.483
257.68	7.691
257.89	7.818
258.10	7.933
258.32	7.948
258.53	7.792
258.74	7.706
258.95	7.637
259.16	7.563
259.37	7.526
259.58	7.474
259.79	7.558
260.00	7.533
260.22	7.502
260.43	7.540
260.64	7.500
260.85	7.561
261.06	7.649
261.27	7.731
261.48	7.847
261.69	7.847
261.90	7.997
262.12	7.813
262.33	7.805
262.54	7.768
262.75	7.719
262.96	7.714
263.17	7.678
263.38	7.519
263.59	7.477
263.80	7.381
264.01	7.585
264.22	7.366
264.44	7.500
264.65	7.320
264.86	7.343
265.07	7.151
265.28	7.041
265.49	7.061
265.70	7.092
265.91	7.050
266.12	7.097
266.33	6.975
266.54	7.045
266.75	7.022
266.97	7.241
267.18	7.240
267.39	7.329
267.60	7.355
267.81	7.355
268.02	7.374
268.23	7.515
268.44	7.518
268.65	7.539
268.86	7.645
269.07	7.607
269.28	7.397
269.49	7.398
269.70	7.326
269.92	7.311
270.13	7.345
270.34	7.378
270.55	7.174
270.76	7.033
270.97	7.080
271.18	7.046
271.39	7.013
271.60	7.065
271.81	7.080
272.02	7.150
272.23	7.218
272.44	7.155
272.65	7.105
272.86	7.218
273.07	7.293
273.28	7.286
273.49	7.227
273.71	7.249
273.92	7.286
274.13	7.151
274.34	7.004
274.55	7.004
274.76	6.913
274.97	6.926
275.18	6.817
275.39	6.846
275.60	6.796
275.81	6.865
276.02	6.721
276.23	6.686
276.44	6.744
276.65	6.838
276.86	6.794
277.07	6.826
277.28	6.842
277.49	6.959
277.70	6.845
277.91	6.855
278.12	6.813
278.33	6.908
278.54	6.814
278.75	6.712
278.96	6.594
279.17	6.613
279.39	6.579
279.60	6.499
279.81	6.417
280.02	6.405
280.23	6.329
280.44	6.266
280.65	6.252
280.86	6.323
281.07	6.424
281.28	6.590
281.49	6.451
281.70	6.563
281.91	6.521
282.12	6.495
282.33	6.524
282.54	6.500
282.75	6.571
282.96	6.697
283.17	6.657
283.38	6.634
283.59	6.480
283.80	6.435
284.01	6.283
284.22	6.317
284.43	6.298
284.64	6.267
284.85	6.355
285.06	6.320
285.27	6.236
285.48	6.247
285.69	6.207
285.90	6.268
286.11	6.362
286.32	6.430
286.53	6.427
286.74	6.501
286.95	6.525
287.16	6.537
287.37	6.499
287.58	6.479
287.79	6.463
288.00	6.472
288.21	6.309
288.42	6.248
288.63	6.268
288.84	6.264
289.05	6.217
289.26	6.196
289.47	6.096
289.68	6.110
289.89	6.088
290.10	6.031
290.31	5.953
290.51	6.036
290.72	6.066
290.93	6.123
291.14	6.121
291.35	6.059
291.56	6.048
291.77	6.046
291.98	6.031
292.19	6.080
292.40	6.082
292.61	6.116
292.82	6.129
293.03	6.179
293.24	6.021
293.45	5.964
293.66	5.999
293.87	5.996
294.08	5.991
294.29	6.050
294.50	6.028
294.71	6.044
294.92	6.086
295.13	6.043
295.34	5.938
295.55	5.977
295.76	5.971
295.96	5.929
296.17	5.910
296.38	5.928
296.59	5.867
296.80	5.826
297.01	5.849
297.22	5.870
297.43	5.862
297.64	5.881
297.85	5.870
298.06	5.852
298.27	5.838
298.48	5.811
298.69	5.756
298.90	5.740
299.11	5.744
299.32	5.669
299.53	5.601
299.73	5.612
299.94	5.580
300.15	5.529
300.36	5.576
300.57	5.621
300.78	5.604
300.99	5.634
301.20	5.643
301.41	5.640
301.62	5.671
301.83	5.674
302.04	5.680
302.25	5.670
302.45	5.663
302.66	5.585
302.87	5.497
303.08	5.520
303.29	5.531
303.50	5.564
303.71	5.569
303.92	5.551
304.13	5.509
304.34	5.455
304.55	5.446
304.76	5.462
304.96	5.443
305.17	5.464
305.38	5.442
305.59	5.409
305.80	5.381
306.01	5.420
306.22	5.371
306.43	5.422
306.64	5.423
306.85	5.428
307.06	5.367
307.26	5.389
307.47	5.368
307.68	5.459
307.89	5.425
308.10	5.368
308.31	5.274
308.52	5.314
308.73	5.303
308.94	5.351
309.14	5.392
309.35	5.446
309.56	5.462
309.77	5.492
309.98	5.466
310.19	5.504
310.40	5.479
310.61	5.448
310.82	5.425
311.02	5.411
311.23	5.328
311.44	5.253
311.65	5.205
311.86	5.179
312.07	5.158
312.28	5.088
312.49	5.039
312.69	5.067
312.90	5.087
313.11	5.046
313.32	5.044
313.53	5.068
313.74	5.011
313.95	4.996
314.16	4.994
314.36	5.008
314.57	5.050
314.78	5.064
314.99	5.020
315.20	5.084
315.41	5.131
315.62	5.054
315.82	5.074
316.03	5.142
316.24	5.193
316.45	5.264
316.66	5.199
316.87	5.236
317.08	5.145
317.28	5.217
317.49	5.174
317.70	5.178
317.91	5.224
318.12	5.213
318.33	5.194
318.54	5.145
318.74	5.049
318.95	5.077
319.16	5.070
319.37	5.168
319.58	5.128
319.79	5.076
319.99	5.060
320.20	5.062
320.41	5.036
320.62	5.029
320.83	5.013
321.04	5.034
321.24	4.985
321.45	4.947
321.66	4.898
321.87	4.944
322.08	4.936
322.29	4.888
322.49	4.832
322.70	4.862
322.91	4.893
323.12	4.893
323.33	4.856
323.54	4.901
323.74	4.876
323.95	4.899
324.16	4.878
324.37	4.886
324.58	4.895
324.79	4.881
324.99	4.858
325.20	4.868
325.41	4.881
325.62	4.910
325.83	4.901
326.03	4.859
326.24	4.840
326.45	4.810
326.66	4.784
326.87	4.771
327.07	4.827
327.28	4.829
327.49	4.818
327.70	4.836
327.91	4.831
328.11	4.793
328.32	4.785
328.53	4.835
328.74	4.805
328.95	4.825
329.15	4.881
329.36	4.870
329.57	4.841
329.78	4.819
329.99	4.748
330.19	4.683
330.40	4.737
330.61	4.767
330.82	4.679
331.03	4.643
331.23	4.687
331.44	4.676
331.65	4.628
331.86	4.673
332.07	4.641
332.27	4.694
332.48	4.745
332.69	4.718
332.90	4.732
333.10	4.766
333.31	4.811
333.52	4.765
333.73	4.714
333.94	4.685
334.14	4.632
334.35	4.679
334.56	4.671
334.77	4.625
334.97	4.600
335.18	4.537
335.39	4.504
335.60	4.460
335.80	4.453
336.01	4.472
336.22	4.475
336.43	4.510
336.64	4.490
336.84	4.479
337.05	4.464
337.26	4.457
337.47	4.444
337.67	4.469
337.88	4.471
338.09	4.481
338.30	4.480
338.50	4.540
338.71	4.538
338.92	4.550
339.13	4.570
339.33	4.618
339.54	4.605
339.75	4.651
339.96	4.631
340.16	4.625
340.37	4.626
340.58	4.582
340.79	4.584
340.99	4.551
341.20	4.498
341.41	4.462
341.62	4.430
341.82	4.446
342.03	4.371
342.24	4.354
342.44	4.358
342.65	4.313
342.86	4.330
343.07	4.283
343.27	4.294
343.48	4.261
343.69	4.239
343.90	4.271
344.10	4.246
344.31	4.270
344.52	4.292
344.72	4.279
344.93	4.288
345.14	4.308
345.35	4.294
345.55	4.308
345.76	4.340
345.97	4.358
346.18	4.335
346.38	4.337
346.59	4.310
346.80	4.276
347.00	4.277
347.21	4.286
347.42	4.268
347.62	4.323
347.83	4.258
348.04	4.248
348.25	4.206
348.45	4.212
348.66	4.229
348.87	4.266
349.07	4.249
349.28	4.256
349.49	4.235
349.70	4.231
349.90	4.163
350.11	4.226
350.32	4.196
350.52	4.238
350.73	4.230
350.94	4.225
351.14	4.247
351.35	4.284
351.56	4.239
351.76	4.272
351.97	4.235
352.18	4.283
352.39	4.238
352.59	4.290
352.80	4.255
353.01	4.257
353.21	4.220
353.42	4.179
353.63	4.133
353.83	4.130
354.04	4.080
354.25	4.101
354.45	4.058
354.66	4.061
354.87	4.032
355.07	4.064
355.28	4.055
355.49	4.072
355.69	4.095
355.90	4.128
356.11	4.184
356.31	4.243
356.52	4.257
356.73	4.294
356.93	4.303
357.14	4.310
357.35	4.286
357.55	4.308
357.76	4.278
357.97	4.236
358.17	4.258
358.38	4.255
358.59	4.202
358.79	4.177
359.00	4.134
359.21	4.098
359.41	4.039
359.62	4.070
359.83	4.041
360.03	4.044
360.24	4.077
360.44	4.047
360.65	4.020
360.86	4.036
361.06	4.031
361.27	4.060
361.48	4.081
361.68	4.159
361.89	4.130
362.10	4.128
362.30	4.143
362.51	4.142
362.72	4.145
362.92	4.161
363.13	4.147
363.33	4.145
363.54	4.129
363.75	4.145
363.95	4.100
364.16	4.103
364.37	4.135
364.57	4.148
364.78	4.136
364.98	4.135
365.19	4.106
365.40	4.129
365.60	4.111
365.81	4.136
366.02	4.107
366.22	4.105
366.43	4.119
366.63	4.072
366.84	4.029
367.05	4.044
367.25	4.009
367.46	3.998
367.66	3.985
367.87	4.042
368.08	4.013
368.28	4.044
368.49	4.046
368.69	4.020
368.90	4.024
369.11	4.066
369.31	4.095
369.52	4.140
369.72	4.149
369.93	4.128
370.14	4.083
370.34	4.062
370.55	4.020
370.75	4.017
370.96	3.980
371.17	4.008
371.37	3.998
371.58	3.975
371.78	3.956
371.99	3.971
372.20	3.987
372.40	3.984
372.61	4.007
372.81	4.037
373.02	4.029
373.23	4.051
373.43	4.031
373.64	4.014
373.84	3.976
374.05	4.012
374.25	4.013
374.46	4.003
374.67	4.006
374.87	4.031
375.08	4.000
375.28	3.995
375.49	3.989
375.69	4.004
375.90	3.995
376.11	4.017
376.31	3.987
376.52	3.980
376.72	3.964
376.93	3.974
377.13	3.954
377.34	3.973
377.55	3.983
377.75	4.029
377.96	3.980
378.16	4.002
378.37	4.013
378.57	4.004
378.78	4.001
378.98	4.004
379.19	4.014
379.40	3.972
379.60	3.938
379.81	3.949
380.01	3.898
380.22	3.892
380.42	3.873
380.63	3.863
380.83	3.852
381.04	3.828
381.24	3.835
381.45	3.824
381.66	3.834
381.86	3.860
382.07	3.840
382.27	3.845
382.48	3.851
382.68	3.854
382.89	3.837
383.09	3.845
383.30	3.855
383.50	3.846
383.71	3.822
383.91	3.836
384.12	3.822
384.32	3.829
384.53	3.836
384.73	3.858
384.94	3.854
385.15	3.864
385.35	3.857
385.56	3.865
385.76	3.852
385.97	3.859
386.17	3.842
386.38	3.850
386.58	3.846
386.79	3.867
386.99	3.853
387.20	3.852
387.40	3.836
387.61	3.852
387.81	3.832
388.02	3.840
388.22	3.851
388.43	3.878
388.63	3.863
388.84	3.874
389.04	3.859
389.25	3.880
389.45	3.895
389.66	3.920
389.86	3.914
390.07	3.946
390.27	3.966
390.48	3.957
390.68	3.955
390.89	3.993
391.09	4.011
391.30	4.025
391.50	4.031
391.71	4.021
391.91	4.001
392.12	4.002
392.32	3.985
392.53	3.974
392.73	3.985
392.94	3.966
393.14	3.945
393.35	3.919
393.55	3.891
393.75	3.871
393.96	3.866
394.16	3.866
394.37	3.857
394.57	3.868
394.78	3.875
394.98	3.868
395.19	3.854
395.39	3.856
395.60	3.862
395.80	3.878
396.01	3.879
396.21	3.895
396.42	3.892
396.62	3.888
396.83	3.876
397.03	3.877
397.23	3.879
397.44	3.918
397.64	3.917
397.85	3.901
398.05	3.899
398.26	3.900
398.46	3.886
398.67	3.889
398.87	3.894
399.08	3.893
399.28	3.886
399.48	3.871
399.69	3.838
399.89	3.825
400.10	3.837
400.30	3.827
400.51	3.828
400.71	3.837
400.92	3.847
401.12	3.848
401.32	3.833
401.53	3.819
401.73	3.819
401.94	3.861
402.14	3.877
402.35	3.891
402.55	3.900
402.75	3.899
402.96	3.873
403.16	3.886
403.37	3.882
403.57	3.897
403.78	3.894
403.98	3.895
404.18	3.867
404.39	3.843
404.59	3.816
404.80	3.815
405.00	3.797
405.21	3.821
405.41	3.812
405.61	3.819
405.82	3.833
406.02	3.841
406.23	3.857
406.43	3.872
406.63	3.887
406.84	3.914
407.04	3.899
407.25	3.935
407.45	3.951
407.65	3.955
407.86	3.923
408.06	3.909
408.27	3.896
408.47	3.902
408.67	3.872
408.88	3.872
409.08	3.858
409.29	3.873
409.49	3.843
409.69	3.830
409.90	3.818
410.10	3.848
410.31	3.828
410.51	3.849
410.71	3.827
410.92	3.816
411.12	3.799
411.33	3.809
411.53	3.802
411.73	3.783
411.94	3.784
412.14	3.788
412.34	3.782
412.55	3.810
412.75	3.799
412.96	3.803
413.16	3.811
413.36	3.818
413.57	3.795
413.77	3.786
413.97	3.812
414.18	3.813
414.38	3.803
414.59	3.809
414.79	3.788
414.99	3.793
415.20	3.802
415.40	3.826
415.60	3.824
415.81	3.812
416.01	3.811
416.21	3.812
416.42	3.810
416.62	3.812
416.83	3.798
417.03	3.792
417.23	3.787
417.44	3.774
417.64	3.749
417.84	3.753
418.05	3.769
418.25	3.771
418.45	3.753
418.66	3.751
418.86	3.747
419.06	3.767
419.27	3.769
419.47	3.771
419.67	3.765
419.88	3.768
420.08	3.769
420.28	3.752
420.49	3.751
420.69	3.753
420.89	3.746
421.10	3.747
421.30	3.730
421.50	3.731
421.71	3.729
421.91	3.733
422.11	3.745
422.32	3.739
422.52	3.741
422.72	3.746
422.93	3.758
423.13	3.751
423.33	3.752
423.54	3.754
423.74	3.755
423.94	3.761
424.15	3.759
424.35	3.765
424.55	3.780
424.76	3.790
424.96	3.798
425.16	3.799
425.36	3.807
425.57	3.819
425.77	3.822
425.97	3.837
426.18	3.837
426.38	3.840
426.58	3.832
426.79	3.823
426.99	3.811
427.19	3.817
427.39	3.823
427.60	3.835
427.80	3.834
428.00	3.852
428.21	3.851
428.41	3.855
428.61	3.865
428.82	3.887
429.02	3.891
429.22	3.916
429.42	3.887
429.63	3.888
429.83	3.879
430.03	3.870
430.24	3.849
430.44	3.844
430.64	3.856
430.84	3.872
431.05	3.847
431.25	3.850
431.45	3.839
431.65	3.841
431.86	3.839
432.06	3.842
432.26	3.835
432.47	3.852
432.67	3.853
432.87	3.849
433.07	3.835
433.28	3.850
433.48	3.844
433.68	3.839
433.88	3.845
434.09	3.856
434.29	3.855
434.49	3.860
434.69	3.846
434.90	3.845
435.10	3.828
435.30	3.836
435.51	3.831
435.71	3.848
435.91	3.867
436.11	3.878
436.32	3.854
436.52	3.871
436.72	3.886
436.92	3.900
437.13	3.916
437.33	3.916
437.53	3.909
437.73	3.912
437.93	3.881
438.14	3.875
438.34	3.861
438.54	3.875
438.74	3.867
438.95	3.850
439.15	3.847
439.35	3.829
439.55	3.826
439.76	3.840
439.96	3.837
440.16	3.860
440.36	3.861
440.56	3.857
440.77	3.849
440.97	3.843
441.17	3.844
441.37	3.840
441.58	3.856
441.78	3.877
441.98	3.869
442.18	3.862
442.38	3.852
442.59	3.863
442.79	3.879
442.99	3.893
443.19	3.899
443.40	3.911
443.60	3.909
443.80	3.899
444.00	3.894
444.20	3.886
444.41	3.886
444.61	3.896
444.81	3.888
445.01	3.876
445.21	3.869
445.42	3.869
445.62	3.870
445.82	3.874
446.02	3.872
446.22	3.868
446.43	3.867
446.63	3.868
446.83	3.864
447.03	3.859
447.23	3.870
447.44	3.877
447.64	3.869
447.84	3.868
448.04	3.869
448.24	3.874
448.44	3.879
448.65	3.895
448.85	3.893
449.05	3.900
449.25	3.907
449.45	3.918
449.65	3.921
449.86	3.951
450.06	3.957
450.26	3.965
450.46	3.966
450.66	3.972
450.87	3.978
451.07	3.993
451.27	3.968
451.47	3.980
451.67	3.964
451.87	3.975
452.08	3.964
452.28	3.965
452.48	3.966
452.68	3.967
452.88	3.967
453.08	3.961
453.28	3.962
453.49	3.986
453.69	3.989
453.89	3.989
454.09	3.981
454.29	3.978
454.49	3.980
454.70	3.991
454.90	3.992
455.10	3.993
455.30	3.983
455.50	3.987
455.70	3.980
455.90	3.979
456.11	3.973
456.31	3.968
456.51	3.970
456.71	3.971
456.91	3.961
457.11	3.967
457.31	3.960
457.51	3.977
457.72	3.948
457.92	3.953
458.12	3.933
458.32	3.950
458.52	3.958
458.72	3.960
458.92	3.938
459.12	3.936
459.33	3.919
459.53	3.931
459.73	3.943
459.93	3.955
460.13	3.963
460.33	3.977
460.53	3.968
460.73	3.956
460.93	3.962
461.14	3.988
461.34	3.990
461.54	4.012
461.74	4.016
461.94	4.007
462.14	4.023
462.34	4.032
462.54	4.035
462.74	4.038
462.95	4.052
463.15	4.059
463.35	4.047
463.55	4.054
463.75	4.052
463.95	4.044
464.15	4.040
464.35	4.041
464.55	4.026
464.75	4.025
464.95	4.039
465.16	4.045
465.36	4.042
465.56	4.041
465.76	4.053
465.96	4.067
466.16	4.083
466.36	4.086
466.56	4.071
466.76	4.073
466.96	4.081
467.16	4.084
467.36	4.076
467.57	4.078
467.77	4.083
467.97	4.085
468.17	4.080
468.37	4.072
468.57	4.083
468.77	4.101
468.97	4.101
469.17	4.103
469.37	4.100
469.57	4.114
469.77	4.128
469.97	4.126
470.17	4.120
470.37	4.124
470.57	4.127
470.78	4.119
470.98	4.126
471.18	4.136
471.38	4.129
471.58	4.150
471.78	4.151
471.98	4.142
472.18	4.159
472.38	4.165
472.58	4.169
472.78	4.182
472.98	4.185
473.18	4.185
473.38	4.184
473.58	4.206
473.78	4.190
473.98	4.192
474.18	4.204
474.38	4.191
474.58	4.195
474.78	4.205
474.98	4.207
475.18	4.221
475.38	4.213
475.58	4.212
475.79	4.190
475.99	4.186
476.19	4.189
476.39	4.181
476.59	4.185
476.79	4.188
476.99	4.169
477.19	4.157
477.39	4.142
477.59	4.141
477.79	4.146
477.99	4.150
478.19	4.156
478.39	4.159
478.59	4.169
478.79	4.174
478.99	4.173
479.19	4.186
479.39	4.195
479.59	4.209
479.79	4.214
479.99	4.214
480.19	4.211
480.39	4.212
480.59	4.204
480.79	4.200
480.99	4.202
481.19	4.205
481.39	4.209
481.59	4.207
481.79	4.218
481.99	4.226
482.19	4.229
482.39	4.242
482.59	4.241
482.79	4.233
482.99	4.232
483.19	4.248
483.39	4.307
483.59	4.346
483.79	4.347
483.99	4.329
484.19	4.310
484.39	4.311
484.58	4.309
484.78	4.308
484.98	4.318
485.18	4.321
485.38	4.319
485.58	4.275
485.78	4.224
485.98	4.215
486.18	4.224
486.38	4.244
486.58	4.241
486.78	4.238
486.98	4.251
487.18	4.253
487.38	4.260
487.58	4.260
487.78	4.264
487.98	4.271
488.18	4.271
488.38	4.275
488.58	4.274
488.78	4.277
488.98	4.283
489.18	4.289
489.37	4.292
489.57	4.297
489.77	4.307
489.97	4.310
490.17	4.319
490.37	4.314
490.57	4.315
490.77	4.318
490.97	4.323
491.17	4.324
491.37	4.323
491.57	4.324
491.77	4.327
491.97	4.331
492.17	4.332
492.37	4.338
492.56	4.347
492.76	4.355
492.96	4.365
493.16	4.373
493.36	4.384
493.56	4.395
493.76	4.402
493.96	4.411
494.16	4.417
494.36	4.426
494.56	4.426
494.76	4.441
494.95	4.448
495.15	4.460
495.35	4.470
495.55	4.483
495.75	4.480
495.95	4.491
496.15	4.492
496.35	4.493
496.55	4.491
496.75	4.500
496.95	4.498
497.14	4.506
497.34	4.509
497.54	4.515
497.74	4.514
497.94	4.521
498.14	4.526
498.34	4.528
498.54	4.530
498.74	4.535
498.93	4.543
499.13	4.550
499.33	4.557
499.53	4.565
499.73	4.570
499.93	4.580
500.13	4.584
500.33	4.585
500.53	4.596
500.72	4.608
500.92	4.615
501.12	4.614
501.32	4.615
501.52	4.618
501.72	4.611
501.92	4.614
502.12	4.611
502.31	4.619
502.51	4.625
502.71	4.629
502.91	4.618
503.11	4.617
503.31	4.623
503.51	4.630
503.70	4.621
503.90	4.633
504.10	4.642
504.30	4.645
504.50	4.640
504.70	4.650
504.90	4.648
505.09	4.667
505.29	4.678
505.49	4.675
505.69	4.688
505.89	4.706
506.09	4.702
506.29	4.708
506.48	4.717
506.68	4.728
506.88	4.732
507.08	4.739
507.28	4.745
507.48	4.754
507.67	4.754
507.87	4.740
508.07	4.740
508.27	4.746
508.47	4.744
508.67	4.745
508.86	4.751
509.06	4.752
509.26	4.760
509.46	4.763
509.66	4.758
509.85	4.773
510.05	4.792
510.25	4.799
510.45	4.815
510.65	4.828
510.85	4.827
511.04	4.826
511.24	4.829
511.44	4.839
511.64	4.844
511.84	4.856
512.03	4.863
512.23	4.865
512.43	4.862
512.63	4.861
512.83	4.868
513.02	4.889
513.22	4.897
513.42	4.904
513.62	4.908
513.82	4.915
514.01	4.921
514.21	4.932
514.41	4.937
514.61	4.953
514.81	4.950
515.00	4.942
515.20	4.926
515.40	4.945
515.60	4.949
515.80	4.949
515.99	4.937
516.19	4.937
516.39	4.932
516.59	4.941
516.78	4.952
516.98	4.962
517.18	4.966
517.38	4.987
517.58	4.968
517.77	4.972
517.97	4.971
518.17	4.980
518.37	4.980
518.56	4.984
518.76	4.990
518.96	4.995
519.16	5.004
519.36	5.008
519.55	5.008
519.75	5.022
519.95	5.038
520.15	5.052
520.34	5.067
520.54	5.078
520.74	5.093
520.94	5.095
521.13	5.102
521.33	5.103
521.53	5.112
521.73	5.125
521.92	5.128
522.12	5.132
522.32	5.133
522.52	5.138
522.71	5.149
522.91	5.158
523.11	5.162
523.31	5.160
523.50	5.161
523.70	5.173
523.90	5.171
524.09	5.179
524.29	5.181
524.49	5.192
524.69	5.200
524.88	5.209
525.08	5.202
525.28	5.206
525.48	5.201
525.67	5.212
525.87	5.212
526.07	5.217
526.26	5.217
526.46	5.226
526.66	5.229
526.86	5.228
527.05	5.229
527.25	5.235
527.45	5.237
527.64	5.242
527.84	5.241
528.04	5.250
528.24	5.260
528.43	5.280
528.63	5.285
528.83	5.291
529.02	5.294
529.22	5.296
529.42	5.298
529.62	5.303
529.81	5.311
530.01	5.318
530.21	5.313
530.40	5.309
530.60	5.298
530.80	5.297
530.99	5.303
531.19	5.314
531.39	5.322
531.58	5.335
531.78	5.352
531.98	5.361
532.18	5.365
532.37	5.390
532.57	5.408
532.77	5.425
532.96	5.429
533.16	5.432
533.36	5.432
533.55	5.439
533.75	5.436
533.95	5.443
534.14	5.443
534.34	5.463
534.54	5.473
534.73	5.489
534.93	5.496
535.13	5.512
535.32	5.520
535.52	5.539
535.72	5.553
535.91	5.573
536.11	5.570
536.31	5.584
536.50	5.586
536.70	5.595
536.90	5.596
537.09	5.614
537.29	5.618
537.48	5.632
537.68	5.631
537.88	5.642
538.07	5.651
538.27	5.673
538.47	5.692
538.66	5.707
538.86	5.710
539.06	5.721
539.25	5.730
539.45	5.741
539.65	5.759
539.84	5.790
540.04	5.782
540.23	5.794
540.43	5.794
540.63	5.791
540.82	5.786
541.02	5.781
541.22	5.779
541.41	5.783
541.61	5.785
541.80	5.778
542.00	5.768
542.20	5.772
542.39	5.773
542.59	5.776
542.79	5.782
542.98	5.785
543.18	5.797
543.37	5.814
543.57	5.811
543.77	5.822
543.96	5.835
544.16	5.853
544.35	5.875
544.55	5.894
544.75	5.909
544.94	5.918
545.14	5.939
545.33	5.965
545.53	5.975
545.73	5.980
545.92	5.986
546.12	5.996
546.31	6.000
546.51	6.005
546.71	6.008
546.90	6.022
547.10	6.038
547.29	6.051
547.49	6.062
547.69	6.077
547.88	6.099
548.08	6.115
548.27	6.128
548.47	6.144
548.66	6.157
548.86	6.165
549.06	6.175
549.25	6.187
549.45	6.198
549.64	6.192
549.84	6.197
550.03	6.218
550.23	6.232
550.43	6.246
550.62	6.269
550.82	6.290
551.01	6.304
551.21	6.313
551.40	6.320
551.60	6.352
551.80	6.364
551.99	6.375
552.19	6.370
552.38	6.372
552.58	6.376
552.77	6.377
552.97	6.368
553.16	6.372
553.36	6.374
553.56	6.398
553.75	6.376
553.95	6.386
554.14	6.392
554.34	6.418
554.53	6.435
554.73	6.451
554.92	6.468
555.12	6.492
555.31	6.508
555.51	6.537
555.70	6.529
555.90	6.554
556.10	6.572
556.29	6.585
556.49	6.583
556.68	6.615
556.88	6.628
557.07	6.631
557.27	6.653
557.46	6.662
557.66	6.654
557.85	6.680
558.05	6.686
558.24	6.696
558.44	6.721
558.63	6.721
558.83	6.700
559.02	6.718
559.22	6.725
559.41	6.721
559.61	6.729
559.80	6.752
560.00	6.749
560.19	6.755
560.39	6.757
560.58	6.756
560.78	6.777
560.97	6.799
561.17	6.806
561.36	6.819
561.56	6.825
561.75	6.842
561.95	6.847
562.14	6.862
562.34	6.872
562.53	6.889
562.73	6.899
562.92	6.909
563.12	6.919
563.31	6.917
563.51	6.920
563.70	6.935
563.90	6.950
564.09	6.955
564.29	6.958
564.48	6.965
564.68	6.974
564.87	6.984
565.07	6.988
565.26	7.003
565.45	7.019
565.65	7.034
565.84	7.039
566.04	7.034
566.23	7.045
566.43	7.060
566.62	7.074
566.82	7.084
567.01	7.088
567.21	7.099
567.40	7.091
567.60	7.106
567.79	7.110
567.98	7.129
568.18	7.155
568.37	7.165
568.57	7.173
568.76	7.189
568.96	7.187
569.15	7.207
569.35	7.234
569.54	7.256
569.73	7.257
569.93	7.276
570.12	7.264
570.32	7.267
570.51	7.282
570.71	7.295
570.90	7.299
571.09	7.319
571.29	7.334
571.48	7.338
571.68	7.354
571.87	7.376
572.07	7.386
572.26	7.408
572.45	7.421
572.65	7.443
572.84	7.452
573.04	7.466
573.23	7.482
573.43	7.492
573.62	7.494
573.81	7.506
574.01	7.505
574.20	7.509
574.40	7.529
574.59	7.541
574.78	7.536
574.98	7.545
575.17	7.554
575.37	7.563
575.56	7.579
575.75	7.593
575.95	7.603
576.14	7.621
576.34	7.637
576.53	7.650
576.72	7.659
576.92	7.697
577.11	7.713
577.31	7.736
577.50	7.746
577.69	7.767
577.89	7.794
578.08	7.804
578.28	7.809
578.47	7.829
578.66	7.840
578.86	7.857
579.05	7.853
579.24	7.879
579.44	7.885
579.63	7.898
579.83	7.897
580.02	7.907
580.21	7.932
580.41	7.938
580.60	7.947
580.79	7.951
580.99	7.971
581.18	7.979
581.38	7.986
581.57	8.011
581.76	8.011
581.96	8.030
582.15	8.045
582.34	8.048
582.54	8.065
582.73	8.091
582.92	8.115
583.12	8.122
583.31	8.123
583.50	8.117
583.70	8.118
583.89	8.151
584.08	8.148
584.28	8.158
584.47	8.168
584.66	8.189
584.86	8.186
585.05	8.196
585.24	8.191
585.44	8.230
585.63	8.261
585.82	8.286
586.02	8.292
586.21	8.326
586.40	8.341
586.60	8.366
586.79	8.375
586.98	8.377
587.18	8.393
587.37	8.420
587.56	8.420
587.76	8.444
587.95	8.457
588.14	8.472
588.34	8.467
588.53	8.476
588.72	8.486
588.92	8.500
589.11	8.530
589.30	8.545
589.50	8.561
589.69	8.589
589.88	8.587
590.07	8.595
590.27	8.621
590.46	8.633
590.65	8.636
590.85	8.648
591.04	8.659
591.23	8.675
591.43	8.671
591.62	8.684
591.81	8.671
592.00	8.703
592.20	8.716
592.39	8.725
592.58	8.741
592.78	8.763
592.97	8.766
593.16	8.783
593.35	8.789
593.55	8.814
593.74	8.807
593.93	8.846
594.13	8.839
594.32	8.842
594.51	8.856
594.70	8.876
594.90	8.865
595.09	8.889
595.28	8.905
595.47	8.921
595.67	8.935
595.86	8.958
596.05	8.956
596.24	8.981
596.44	8.988
596.63	8.986
596.82	8.975
597.02	8.994
597.21	9.001
597.40	9.006
597.59	9.007
597.79	9.004
597.98	9.021
598.17	9.034
598.36	9.033
598.56	9.053
598.75	9.056
598.94	9.076
599.13	9.104
599.32	9.118
599.52	9.122
599.71	9.157
599.90	9.174
600.09	9.190
600.29	9.202
600.48	9.223
600.67	9.222
600.86	9.241
601.06	9.269
601.25	9.292
601.44	9.309
601.63	9.350
601.82	9.356
602.02	9.388
602.21	9.398
602.40	9.413
602.59	9.423
602.79	9.445
602.98	9.477
603.17	9.484
603.36	9.486
603.55	9.490
603.75	9.489
603.94	9.495
604.13	9.495
604.32	9.493
604.51	9.491
604.71	9.505
604.90	9.520
605.09	9.524
605.28	9.532
605.47	9.538
605.67	9.552
605.86	9.567
606.05	9.593
606.24	9.611
606.43	9.641
606.63	9.674
606.82	9.690
607.01	9.693
607.20	9.706
607.39	9.732
607.59	9.743
607.78	9.769
607.97	9.776
608.16	9.772
608.35	9.783
608.54	9.791
608.74	9.791
608.93	9.805
609.12	9.823
609.31	9.822
609.50	9.821
609.69	9.837
609.89	9.833
610.08	9.847
610.27	9.866
610.46	9.883
610.65	9.896
610.84	9.921
611.04	9.922
611.23	9.937
611.42	9.962
611.61	9.982
611.80	9.991
611.99	10.003
612.19	10.014
612.38	10.022
612.57	10.029
612.76	10.050
612.95	10.064
613.14	10.090
613.33	10.106
613.53	10.134
613.72	10.166
613.91	10.184
614.10	10.217
614.29	10.245
614.48	10.262
614.67	10.297
614.86	10.311
615.06	10.342
615.25	10.351
615.44	10.370
615.63	10.367
615.82	10.366
616.01	10.380
616.20	10.383
616.39	10.398
616.59	10.403
616.78	10.406
616.97	10.422
617.16	10.430
617.35	10.437
617.54	10.437
617.73	10.467
617.92	10.497
618.12	10.511
618.31	10.525
618.50	10.539
618.69	10.570
618.88	10.574
619.07	10.570
619.26	10.578
619.45	10.609
619.64	10.627
619.83	10.630
620.03	10.625
620.22	10.644
620.41	10.673
620.60	10.665
620.79	10.678
620.98	10.685
621.17	10.711
621.36	10.714
621.55	10.736
621.74	10.753
621.93	10.769
622.12	10.789
622.32	10.812
622.51	10.789
622.70	10.818
622.89	10.830
623.08	10.871
623.27	10.892
623.46	10.890
623.65	10.893
623.84	10.920
624.03	10.935
624.22	10.950
624.41	10.946
624.60	10.979
624.79	10.998
624.99	11.005
625.18	11.002
625.37	10.991
625.56	11.033
625.75	11.049
625.94	11.061
626.13	11.074
626.32	11.082
626.51	11.107
626.70	11.117
626.89	11.111
627.08	11.125
627.27	11.123
627.46	11.132
627.65	11.129
627.84	11.134
628.03	11.142
628.22	11.144
628.41	11.165
628.60	11.167
628.79	11.188
628.98	11.208
629.17	11.210
629.37	11.234
629.56	11.259
629.75	11.276
629.94	11.284
630.13	11.294
630.32	11.302
630.51	11.311
630.70	11.328
630.89	11.322
631.08	11.337
631.27	11.361
631.46	11.395
631.65	11.399
631.84	11.422
632.03	11.421
632.22	11.442
632.41	11.473
632.60	11.497
632.79	11.512
632.98	11.528
633.17	11.542
633.36	11.552
633.55	11.556
633.74	11.590
633.93	11.596
634.12	11.630
634.31	11.637
634.50	11.654
634.69	11.652
634.88	11.678
635.07	11.698
635.26	11.697
635.45	11.704
635.64	11.708
635.83	11.707
636.02	11.719
636.21	11.738
636.40	11.751
636.59	11.757
636.78	11.775
636.96	11.796
637.15	11.812
637.34	11.844
637.53	11.871
637.72	11.878
637.91	11.899
638.10	11.919
638.29	11.943
638.48	11.978
638.67	11.996
638.86	12.018
639.05	12.023
639.24	12.040
639.43	12.059
639.62	12.071
639.81	12.097
640.00	12.102
640.19	12.126
640.38	12.151
640.57	12.147
640.76	12.152
640.95	12.180
641.14	12.186
641.32	12.228
641.51	12.253
641.70	12.265
641.89	12.283
642.08	12.315
642.27	12.315
642.46	12.300
642.65	12.313
642.84	12.337
643.03	12.356
643.22	12.375
643.41	12.402
643.60	12.412
643.79	12.455
643.98	12.465
644.16	12.480
644.35	12.500
644.54	12.523
644.73	12.562
644.92	12.567
645.11	12.547
645.30	12.571
645.49	12.576
645.68	12.568
645.87	12.551
646.06	12.580
646.24	12.598
646.43	12.586
646.62	12.602
646.81	12.599
647.00	12.603
647.19	12.616
647.38	12.627
647.57	12.631
647.76	12.647
647.95	12.675
648.13	12.687
648.32	12.706
648.51	12.745
648.70	12.740
648.89	12.749
649.08	12.767
649.27	12.810
649.46	12.820
649.65	12.810
649.83	12.827
650.02	12.843
650.21	12.850
650.40	12.852
650.59	12.844
650.78	12.878
650.97	12.888
651.16	12.905
651.34	12.901
651.53	12.902
651.72	12.908
651.91	12.907
652.10	12.918
652.29	12.933
652.48	12.941
652.66	12.985
652.85	13.009
653.04	13.031
653.23	13.033
653.42	13.049
653.61	13.070
653.80	13.095
653.98	13.128
654.17	13.129
654.36	13.130
654.55	13.130
654.74	13.155
654.93	13.151
655.11	13.163
655.30	13.172
655.49	13.186
655.68	13.201
655.87	13.242
656.06	13.257
656.24	13.281
656.43	13.281
656.62	13.314
656.81	13.318
657.00	13.347
657.19	13.370
657.37	13.413
657.56	13.423
657.75	13.388
657.94	13.405
658.13	13.421
658.31	13.438
658.50	13.459
658.69	13.456
658.88	13.444
659.07	13.442
659.26	13.428
659.44	13.430
659.63	13.441
659.82	13.488
660.01	13.487
660.20	13.494
660.38	13.513
660.57	13.541
660.76	13.548
660.95	13.584
661.14	13.603
661.32	13.640
661.51	13.649
661.70	13.684
661.89	13.720
662.08	13.735
662.26	13.773
662.45	13.774
662.64	13.774
662.83	13.835
663.01	13.829
663.20	13.860
663.39	13.874
663.58	13.894
663.77	13.901
663.95	13.924
664.14	13.949
664.33	13.955
664.52	13.966
664.70	13.988
664.89	13.979
665.08	14.018
665.27	14.030
665.45	14.031
665.64	14.048
665.83	14.056
666.02	14.046
666.20	14.026
666.39	14.031
666.58	14.071
666.77	14.093
666.95	14.086
667.14	14.089
667.33	14.122
667.52	14.158
667.70	14.159
667.89	14.167
668.08	14.195
668.27	14.210
668.45	14.215
668.64	14.214
668.83	14.229
669.02	14.252
669.20	14.252
669.39	14.258
669.58	14.274
669.77	14.313
669.95	14.328
670.14	14.328
670.33	14.370
670.51	14.401
670.70	14.427
670.89	14.461
671.08	14.496
671.26	14.532
671.45	14.517
671.64	14.525
671.82	14.554
672.01	14.586
672.20	14.605
672.39	14.604
672.57	14.627
672.76	14.617
672.95	14.590
673.13	14.579
673.32	14.603
673.51	14.625
673.70	14.612
673.88	14.608
674.07	14.612
674.26	14.641
674.44	14.683
674.63	14.680
674.82	14.700
675.00	14.724
675.19	14.757
675.38	14.751
675.56	14.796
675.75	14.847
675.94	14.843
676.12	14.852
676.31	14.857
676.50	14.827
676.69	14.837
676.87	14.868
677.06	14.867
677.25	14.874
677.43	14.917
677.62	14.908
677.81	14.904
677.99	14.950
678.18	14.963
678.37	14.986
678.55	15.007
678.74	14.997
678.93	15.008
679.11	15.030
679.30	15.041
679.48	15.028
679.67	15.029
679.86	15.035
680.04	15.030
680.23	15.048
680.42	15.021
680.60	15.047
680.79	15.078
680.98	15.067
681.16	15.084
681.35	15.096
681.54	15.090
681.72	15.114
681.91	15.137
682.10	15.161
682.28	15.170
682.47	15.212
682.65	15.208
682.84	15.214
683.03	15.244
683.21	15.252
683.40	15.261
683.59	15.293
683.77	15.302
683.96	15.321
684.14	15.324
684.33	15.341
684.52	15.364
684.70	15.396
684.89	15.424
685.07	15.445
685.26	15.484
685.45	15.499
685.63	15.500
685.82	15.519
686.00	15.547
686.19	15.572
686.38	15.582
686.56	15.591
686.75	15.622
686.93	15.620
687.12	15.613
687.31	15.629
687.49	15.660
687.68	15.684
687.86	15.664
688.05	15.665
688.24	15.693
688.42	15.708
688.61	15.710
688.79	15.710
688.98	15.716
689.17	15.738
689.35	15.732
689.54	15.722
689.72	15.722
689.91	15.758
690.09	15.763
690.28	15.751
690.47	15.757
690.65	15.771
690.84	15.768
691.02	15.796
691.21	15.789
691.39	15.812
691.58	15.864
691.76	15.900
691.95	15.912
692.14	15.941
692.32	15.971
692.51	15.984
692.69	16.011
692.88	16.033
693.06	16.053
693.25	16.091
693.43	16.117
693.62	16.130
693.81	16.126
693.99	16.143
694.18	16.123
694.36	16.100
694.55	16.123
694.73	16.133
694.92	16.127
695.10	16.089
695.29	16.094
695.47	16.077
695.66	16.050
695.84	16.104
696.03	16.136
696.21	16.166
696.40	16.206
696.59	16.231
696.77	16.226
696.96	16.254
697.14	16.292
697.33	16.338
697.51	16.385
697.70	16.414
697.88	16.401
698.07	16.388
698.25	16.409
698.44	16.386
698.62	16.368
698.81	16.370
698.99	16.377
699.18	16.393
699.36	16.381
699.55	16.375
699.73	16.361
699.92	16.336
700.10	16.336
700.29	16.317
700.47	16.334
700.66	16.345
700.84	16.351
701.03	16.355
701.21	16.356
701.40	16.359
701.58	16.387
701.77	16.417
701.95	16.479
702.13	16.503
702.32	16.550
702.50	16.620
702.69	16.664
702.87	16.691
703.06	16.731
703.24	16.730
703.43	16.778
703.61	16.789
703.80	16.824
703.98	16.788
704.17	16.809
704.35	16.819
704.54	16.820
704.72	16.799
704.90	16.817
705.09	16.810
705.27	16.909
705.46	16.907
705.64	16.888
705.83	16.870
706.01	16.902
706.20	16.903
706.38	16.935
706.56	16.931
706.75	16.975
706.93	16.978
707.12	17.030
707.30	16.985
707.49	17.007
707.67	17.031
707.86	17.086
708.04	17.136
708.22	17.149
708.41	17.130
708.59	17.118
708.78	17.104
708.96	17.173
709.14	17.187
709.33	17.218
709.51	17.202
709.70	17.240
709.88	17.256
710.07	17.257
710.25	17.331
710.43	17.360
710.62	17.383
710.80	17.411
710.99	17.398
711.17	17.402
711.35	17.425
711.54	17.457
711.72	17.457
711.91	17.487
712.09	17.469
712.27	17.455
712.46	17.483
712.64	17.521
712.83	17.519
713.01	17.519
713.19	17.519
713.38	17.554
713.56	17.550
713.75	17.567
713.93	17.544
714.11	17.585
714.30	17.589
714.48	17.595
714.66	17.567
714.85	17.614
715.03	17.650
715.22	17.675
715.40	17.656
715.58	17.716
715.77	17.723
715.95	17.781
716.13	17.778
716.32	17.779
716.50	17.750
716.68	17.783
716.87	17.762
717.05	17.767
717.24	17.748
717.42	17.766
717.60	17.762
717.79	17.777
717.97	17.751
718.15	17.773
718.34	17.780
718.52	17.867
718.70	17.873
718.89	17.911
719.07	17.905
719.25	17.966
719.44	17.987
719.62	17.993
719.80	18.009
719.99	18.030
720.17	18.070
720.35	18.102
720.54	18.057
720.72	18.069
720.90	18.105
721.09	18.120
721.27	18.101
721.45	18.114
721.64	18.124
721.82	18.131
722.00	18.165
722.19	18.192
722.37	18.188
722.55	18.199
722.74	18.240
722.92	18.218
723.10	18.215
723.28	18.275
723.47	18.314
723.65	18.360
723.83	18.381
724.02	18.351
724.20	18.394
724.38	18.406
724.57	18.461
724.75	18.501
724.93	18.551
725.11	18.597
725.30	18.580
725.48	18.577
725.66	18.574
725.85	18.576
726.03	18.582
726.21	18.566
726.39	18.618
726.58	18.647
726.76	18.634
726.94	18.612
727.13	18.604
727.31	18.610
727.49	18.631
727.67	18.626
727.86	18.676
728.04	18.724
728.22	18.681
728.40	18.673
728.59	18.601
728.77	18.604
728.95	18.630
729.13	18.651
729.32	18.661
729.50	18.664
729.68	18.694
729.86	18.676
730.05	18.679
730.23	18.721
730.41	18.734
730.59	18.790
730.78	18.829
730.96	18.847
731.14	18.890
731.32	18.921
731.51	18.898
731.69	18.942
731.87	18.991
732.05	19.014
732.24	19.026
732.42	19.071
732.60	19.078
732.78	19.069
732.97	19.091
733.15	19.097
733.33	19.103
733.51	19.150
733.69	19.112
733.88	19.078
734.06	19.068
734.24	19.073
734.42	19.070
734.60	19.102
734.79	19.137
734.97	19.159
735.15	19.141
735.33	19.136
735.52	19.136
735.70	19.143
735.88	19.134
736.06	19.142
736.24	19.165
736.43	19.209
736.61	19.222
736.79	19.204
736.97	19.161
737.15	19.200
737.34	19.217
737.52	19.209
737.70	19.263
737.88	19.330
738.06	19.309
738.24	19.350
738.43	19.307
738.61	19.316
738.79	19.324
738.97	19.359
739.15	19.298
739.33	19.338
739.52	19.361
739.70	19.357
739.88	19.347
740.06	19.395
740.24	19.358
740.42	19.384
740.61	19.399
740.79	19.470
740.97	19.465
741.15	19.542
741.33	19.564
741.51	19.578
741.70	19.577
741.88	19.602
742.06	19.644
742.24	19.697
742.42	19.714
742.60	19.706
742.78	19.670
742.97	19.737
743.15	19.731
743.33	19.773
743.51	19.815
743.69	19.882
743.87	19.888
744.05	19.872
744.24	19.881
744.42	19.945
744.60	19.964
744.78	20.001
744.96	19.988
745.14	20.044
745.32	20.024
745.50	20.037
745.69	20.019
745.87	20.039
746.05	20.072
746.23	20.081
746.41	20.046
746.59	20.058
746.77	20.035
746.95	20.046
747.13	20.004
747.32	20.000
747.50	20.013
747.68	20.030
747.86	20.023
748.04	20.019
748.22	20.032
748.40	20.049
748.58	20.060
748.76	20.109
748.94	20.131
749.13	20.209
749.31	20.195
749.49	20.206
749.67	20.243
749.85	20.275
750.03	20.300
750.21	20.307
750.39	20.281
750.57	20.327
750.75	20.334
750.93	20.360
751.11	20.370
751.30	20.467
751.48	20.488
751.66	20.452
751.84	20.519
752.02	20.585
752.20	20.660
752.38	20.712
752.56	20.706
752.74	20.725
752.92	20.746
753.10	20.750
753.28	20.680
753.46	20.677
753.64	20.723
753.82	20.661
754.00	20.628
754.18	20.554
754.37	20.513
754.55	20.598
754.73	20.615
754.91	20.607
755.09	20.584
755.27	20.651
755.45	20.664
755.63	20.672
755.81	20.701
755.99	20.693
756.17	20.720
756.35	20.770
756.53	20.700
756.71	20.705
756.89	20.735
757.07	20.773
757.25	20.756
757.43	20.726
757.61	20.736
757.79	20.800
757.97	20.862
758.15	20.965
758.33	21.052
758.51	21.117
758.69	21.090
758.87	21.056
759.05	21.048
759.23	21.053
759.41	21.159
759.59	21.181
759.77	21.182
759.95	21.146
760.13	21.100
760.31	21.030
760.49	21.031
760.67	21.078
760.85	21.082
761.03	21.130
761.21	21.152
761.39	21.173
761.57	21.150
761.75	21.163
761.93	21.201
762.11	21.231
762.29	21.242
762.47	21.253
762.65	21.245
762.83	21.272
763.01	21.268
763.19	21.318
763.37	21.323
763.55	21.414
763.73	21.473
763.91	21.465
764.09	21.452
764.27	21.487
764.45	21.478
764.63	21.485
764.81	21.488
764.99	21.515
765.16	21.485
765.34	21.481
765.52	21.449
765.70	21.408
765.88	21.416
766.06	21.401
766.24	21.394
766.42	21.380
766.60	21.413
766.78	21.426
766.96	21.401
767.14	21.436
767.32	21.408
767.50	21.370
767.68	21.418
767.86	21.411
768.03	21.463
768.21	21.501
768.39	21.512
768.57	21.497
768.75	21.506
768.93	21.535
769.11	21.536
769.29	21.554
769.47	21.577
769.65	21.544
769.83	21.553
770.01	21.558
770.19	21.550
770.36	21.591
770.54	21.615
770.72	21.625
770.90	21.616
771.08	21.679
771.26	21.693
771.44	21.754
771.62	21.784
771.80	21.847
771.98	21.798
772.15	21.816
772.33	21.828
772.51	21.841
772.69	21.867
772.87	21.922
773.05	21.851
773.23	21.877
773.41	21.888
773.58	21.908
773.76	21.890
773.94	21.916
774.12	21.899
774.30	21.935
774.48	21.881
774.66	21.900
774.84	21.891
775.01	21.937
775.19	21.927
775.37	21.930
775.55	21.870
775.73	21.899
775.91	21.937
776.09	21.990
776.26	22.025
776.44	22.080
776.62	22.105
776.80	22.059
776.98	22.069
777.16	22.056
777.34	22.131
777.51	22.136
777.69	22.149
777.87	22.189
778.05	22.178
778.23	22.179
778.41	22.170
778.58	22.101
778.76	22.146
778.94	22.197
779.12	22.297
779.30	22.251
779.48	22.295
779.65	22.344
779.83	22.344
780.01	22.370
780.19	22.322
780.37	22.356
780.55	22.483
780.72	22.529
780.90	22.471
781.08	22.498
781.26	22.617
781.44	22.638
781.61	22.639
781.79	22.634
781.97	22.605
782.15	22.666
782.33	22.646
782.50	22.566
782.68	22.578
782.86	22.563
783.04	22.489
783.22	22.415
783.39	22.412
783.57	22.390
783.75	22.385
783.93	22.463
784.11	22.486
784.28	22.352
784.46	22.408
784.64	22.435
784.82	22.534
784.99	22.635
785.17	22.620
785.35	22.688
785.53	22.697
785.71	22.748
785.88	22.672
786.06	22.703
786.24	22.951
786.42	23.014
786.59	22.968
786.77	22.941
786.95	22.889
787.13	22.947
787.30	22.951
787.48	22.977
787.66	22.987
787.84	23.014
788.01	22.900
788.19	22.888
788.37	22.856
788.55	22.899
788.72	22.979
788.90	22.985
789.08	22.992
789.26	22.967
789.43	23.046
789.61	23.061
789.79	23.108
789.97	23.208
790.14	23.257
790.32	23.298
790.50	23.303
790.68	23.312
790.85	23.381
791.03	23.372
791.21	23.480
791.38	23.381
791.56	23.395
791.74	23.464
791.92	23.446
792.09	23.327
792.27	23.293
792.45	23.332
792.62	23.221
792.80	23.106
792.98	23.058
793.16	22.986
793.33	23.076
793.51	23.112
793.69	23.020
793.86	23.075
794.04	23.099
794.22	23.085
794.39	23.149
794.57	23.272
794.75	23.430
794.93	23.586
795.10	23.588
795.28	23.535
795.46	23.535
795.63	23.590
795.81	23.627
795.99	23.720
796.16	23.773
796.34	23.776
796.52	23.761
796.69	23.782
796.87	23.757
797.05	23.841
797.22	23.820
797.40	23.888
797.58	23.843
797.75	23.815
797.93	23.737
798.11	23.788
798.28	23.708
798.46	23.713
798.64	23.658
798.81	23.656
798.99	23.601
799.17	23.633
799.34	23.566
799.52	23.603
799.70	23.505
799.87	23.642
800.05	23.549
800.22	23.561
800.40	23.517
800.58	23.502
800.75	23.559
800.93	23.618
801.11	23.625
801.28	23.731
801.46	23.709
801.63	23.866
801.81	23.843
801.99	23.969
802.16	23.906
802.34	24.049
802.52	24.115
802.69	24.068
802.87	24.075
803.04	24.151
803.22	24.084
803.40	24.094
803.57	24.137
803.75	24.159
803.93	24.101
804.10	24.217
804.28	24.134
804.45	24.125
804.63	24.237
804.81	24.289
804.98	24.290
805.16	24.279
805.33	24.356
805.51	24.334
805.68	24.369
805.86	24.412
806.04	24.415
806.21	24.508
806.39	24.538
806.56	24.481
806.74	24.374
806.92	24.394
807.09	24.439
807.27	24.411
807.44	24.322
807.62	24.323
807.79	24.390
807.97	24.498
808.15	24.461
808.32	24.438
808.50	24.386
808.67	24.456
808.85	24.514
809.02	24.571
809.20	24.599
809.38	24.681
809.55	24.551
809.73	24.534
809.90	24.492
810.08	24.480
810.25	24.530
810.43	24.579
810.60	24.600
810.78	24.529
810.95	24.383
811.13	24.529
811.31	24.490
811.48	24.718
811.66	24.741
811.83	24.685
812.01	24.720
812.18	24.710
812.36	24.680
812.53	24.687
812.71	24.678
812.88	24.774
813.06	24.713
813.23	24.804
813.41	24.791
813.58	24.654
813.76	24.806
813.93	24.812
814.11	24.751
814.28	24.800
814.46	24.827
814.63	25.012
814.81	24.956
814.98	24.941
815.16	24.952
815.33	24.805
815.51	24.962
815.68	24.810
815.86	24.864
816.03	24.951
816.21	24.947
816.38	24.865
816.56	24.717
816.73	24.810
816.91	24.807
817.08	24.861
817.26	25.003
817.43	24.990
817.61	25.045
817.78	25.026
817.96	25.027
818.13	25.138
818.31	25.196
818.48	25.233
818.66	25.319
818.83	25.340
819.01	25.166
819.18	25.171
819.36	25.156
819.53	25.153
819.70	25.112
819.88	25.166
820.05	25.156
820.23	25.281
820.40	25.308
820.58	25.299
820.75	25.327
820.93	25.361
821.10	25.346
821.28	25.451
821.45	25.538
821.62	25.632
821.80	25.680
821.97	25.757
822.15	25.823
822.32	25.955
822.50	26.186
822.67	26.425
822.84	26.557
823.02	26.498
823.19	26.325
823.37	26.149
823.54	25.996
823.72	25.823
823.89	25.677
824.06	25.596
824.24	25.524
824.41	25.448
824.59	25.356
824.76	25.276
824.94	25.198
825.11	25.148
825.28	25.113
825.46	25.096
825.63	25.152
825.81	25.244
825.98	25.287
826.15	25.343
826.33	25.371
826.50	25.403
826.68	25.411
826.85	25.481
827.02	25.520
827.20	25.664
827.37	25.790
827.54	25.949
827.72	26.086
827.89	26.205
828.07	26.276
828.24	26.295
828.41	26.259
828.59	26.192
828.76	26.123
828.94	26.088
829.11	25.985
829.28	25.938
829.46	25.845
829.63	25.749
829.80	25.670
829.98	25.591
830.15	25.520
830.32	25.501
830.50	25.551
830.67	25.610
830.85	25.652
831.02	25.721
831.19	25.730
831.37	25.739
831.54	25.778
831.71	25.780
831.89	25.857
832.06	25.902
832.23	25.970
832.41	25.969
832.58	26.018
832.75	26.113
832.93	26.174
833.10	26.188
833.27	26.260
833.45	26.390
833.62	26.577
833.79	26.680
833.97	26.809
834.14	26.925
834.31	26.983
834.49	27.084
834.66	27.057
834.83	27.063
835.01	26.999
835.18	26.931
835.35	26.805
835.52	26.659
835.70	26.563
835.87	26.475
836.04	26.359
836.22	26.266
836.39	26.142
836.56	26.064
836.74	26.001
836.91	25.969
837.08	25.905
837.25	25.921
837.43	26.006
837.60	26.045
837.77	26.014
837.95	26.091
838.12	26.121
838.29	26.178
838.46	26.201
838.64	26.205
838.81	26.157
838.98	26.304
839.16	26.260
839.33	26.164
839.50	25.933
839.67	26.117
839.85	25.995
840.02	26.222
840.19	26.124
840.36	26.392
840.54	26.362
840.71	26.618
840.88	26.812
841.06	27.044
841.23	27.082
841.40	27.275
841.57	27.163
841.75	27.197
841.92	27.057
842.09	27.113
842.26	26.917
842.44	26.936
842.61	26.794
842.78	26.763
842.95	26.667
843.12	26.762
843.30	26.631
843.47	26.668
843.64	26.740
843.81	26.878
843.99	26.853
844.16	27.047
844.33	27.016
844.50	27.084
844.68	26.968
844.85	26.794
845.02	26.584
845.19	26.756
845.36	26.715
845.54	26.597
845.71	26.512
845.88	26.488
846.05	26.182
846.22	26.282
846.40	26.275
846.57	26.429
846.74	26.503
846.91	26.239
847.08	26.260
847.26	26.447
847.43	26.672
847.60	26.433
847.77	26.258
847.94	26.532
848.12	26.498
848.29	26.644
848.46	26.338
848.63	26.520
848.80	26.805
848.98	26.848
849.15	27.086
849.32	27.097
849.49	27.054
849.66	27.408
849.83	27.265
850.01	27.111
850.18	26.930
850.35	27.106
850.52	27.249
850.69	27.156
850.86	27.075
851.04	26.677
851.21	26.633
851.38	26.767
851.55	26.621
851.72	26.633
851.89	26.880
852.06	27.002
852.24	26.703
852.41	26.802
852.58	27.015
852.75	27.055
852.92	27.189
853.09	27.453
853.26	27.374
853.44	27.599
853.61	27.595
853.78	27.553
853.95	27.509
854.12	27.411
854.29	27.536
854.46	27.650
854.64	27.835
854.81	27.896
854.98	27.542
855.15	27.891
855.32	27.762
855.49	27.841
855.66	27.802
855.83	28.199
856.00	28.536
856.18	28.447
856.35	28.153
856.52	28.165
856.69	28.034
856.86	28.050
857.03	27.932
857.20	28.248
857.37	28.504
857.54	28.650
857.71	28.352
857.89	28.463
858.06	28.304
858.23	28.337
858.40	27.932
858.57	28.049
858.74	28.011
858.91	27.931
859.08	27.890
859.25	27.803
859.42	27.494
859.59	27.451
859.76	27.305
859.94	27.260
860.11	27.442
860.28	27.602
860.45	27.634
860.62	27.867
860.79	27.818
860.96	27.651
861.13	27.346
861.30	27.453
861.47	27.640
861.64	27.879
861.81	27.452
861.98	27.485
862.15	27.626
862.32	27.377
862.49	27.167
862.66	27.287
862.83	27.066
863.01	27.443
863.18	27.467
863.35	27.505
863.52	27.661
863.69	27.988
863.86	27.899
864.03	27.943
864.20	28.223
864.37	28.394
864.54	28.449
864.71	28.914
864.88	28.639
865.05	28.796
865.22	28.703
865.39	28.689
865.56	28.843
865.73	29.065
865.90	28.945
866.07	29.148
866.24	29.247
866.41	29.219
866.58	28.851
866.75	28.767
866.92	28.486
867.09	28.341
867.26	28.039
867.43	28.177
867.60	27.952
867.77	28.279
867.94	28.051
868.11	28.157
868.28	28.210
868.45	28.306
868.62	28.376
868.79	28.734
868.96	28.985
869.13	29.144
869.30	28.984
869.47	29.082
869.64	28.966
869.81	28.927
869.98	28.710
870.15	29.050
870.32	28.962
870.49	28.805
870.66	28.910
870.83	28.790
871.00	28.922
871.16	28.534
871.33	28.438
871.50	28.273
871.67	28.444
871.84	28.193
872.01	27.945
872.18	28.162
872.35	28.501
872.52	28.274
872.69	27.960
872.86	27.929
873.03	28.388
873.20	28.580
873.37	28.680
873.54	28.776
873.71	28.879
873.88	28.716
874.05	28.705
874.21	28.658
874.38	28.655
874.55	28.965
874.72	28.770
874.89	28.817
875.06	28.676
875.23	28.799
875.40	28.392
875.57	28.727
875.74	28.995
875.91	29.118
876.08	29.049
876.24	28.888
876.41	28.792
876.58	28.917
876.75	28.809
876.92	28.706
877.09	28.688
877.26	29.069
877.43	28.898
877.60	28.857
877.77	28.434
877.93	28.751
878.10	29.085
878.27	29.291
878.44	29.161
878.61	29.288
878.78	29.676
878.95	29.605
879.12	29.456
879.28	29.376
879.45	29.470
879.62	29.638
879.79	29.297
879.96	29.352
880.13	29.161
880.30	29.337
880.47	29.343
880.63	29.299
880.80	29.357
880.97	29.515
881.14	29.716
881.31	29.734
881.48	29.769
881.65	30.058
881.81	30.158
881.98	30.452
882.15	30.480
882.32	30.569
882.49	30.563
882.66	30.477
882.82	30.316
882.99	30.161
883.16	30.021
883.33	29.912
883.50	29.778
883.67	29.683
883.83	29.593
884.00	29.521
884.17	29.392
884.34	29.289
884.51	29.210
884.68	29.147
884.84	29.106
885.01	29.103
885.18	29.103
885.35	29.117
885.52	29.113
885.68	29.058
885.85	29.006
886.02	29.072
886.19	28.882
886.36	29.033
886.53	28.630
886.69	28.679
>>>>>End Spectral Data<<<<<
