OOIBase32 Version 2.0.6.5 Data File
++++++++++++++++++++++++++++++++++++
Date: 03-24-2011, 10:55:57
User: Valued Ocean Optics Customer
Spectrometer Serial Number: USB4C01507
Spectrometer Channel: Master
Integration Time (msec): 46
Spectra Averaged: 30
Boxcar Smoothing: 5
Correct for Electrical Dark: Enabled
Time Normalized: Disabled
Dual-beam Reference: Disabled
Reference Channel: Master
Temperature: Not acquired
Spectrometer Type: S4000
ADC Type: USB4000
Number of Pixels in File: 3648
Graph Title: 
>>>>>Begin Spectral Data<<<<<
179.17	1264.851
179.39	3120.039
179.60	147.472
179.82	-182.726
180.03	145.266
180.24	302.852
180.46	19.492
180.67	9.992
180.89	-34.697
181.10	-136.707
181.31	142.386
181.53	-15.680
181.74	-26.185
181.96	507.096
182.17	-8.107
182.39	-43.548
182.60	60.367
182.81	129.254
183.03	99.449
183.24	-455.926
183.46	26.646
183.67	16.558
183.88	14.369
184.10	30.311
184.31	23.417
184.53	34.688
184.74	25.586
184.96	31.966
185.17	37.152
185.38	35.793
185.60	37.115
185.81	31.108
186.03	29.550
186.24	24.854
186.45	13.360
186.67	15.899
186.88	11.185
187.10	12.729
187.31	4.006
187.52	-2.330
187.74	-5.775
187.95	-5.272
188.17	-9.983
188.38	-15.123
188.59	-12.532
188.81	-12.540
189.02	-15.852
189.24	-13.706
189.45	-10.453
189.66	-10.681
189.88	-20.975
190.09	-18.416
190.30	-22.728
190.52	-10.269
190.73	-4.828
190.95	-6.888
191.16	-3.680
191.37	-0.600
191.59	-4.603
191.80	-4.244
192.02	-0.770
192.23	11.070
192.44	2.992
192.66	8.839
192.87	-4.647
193.08	-3.778
193.30	-0.275
193.51	4.611
193.73	10.324
193.94	18.157
194.15	20.784
194.37	27.960
194.58	21.468
194.79	20.664
195.01	16.693
195.22	18.302
195.44	10.078
195.65	8.499
195.86	8.420
196.08	-1.168
196.29	-2.947
196.50	-8.046
196.72	-4.569
196.93	-2.414
197.14	-2.452
197.36	1.181
197.57	-0.809
197.79	6.641
198.00	1.463
198.21	5.395
198.43	13.060
198.64	13.143
198.85	13.493
199.07	11.085
199.28	12.093
199.49	10.674
199.71	7.058
199.92	13.755
200.13	11.255
200.35	23.223
200.56	13.999
200.78	8.702
200.99	9.172
201.20	14.375
201.42	15.743
201.63	7.330
201.84	7.408
202.06	8.599
202.27	5.458
202.48	5.488
202.70	-5.007
202.91	0.222
203.12	-1.347
203.34	-6.393
203.55	-6.104
203.76	-9.310
203.98	-0.146
204.19	1.940
204.40	1.054
204.62	1.660
204.83	-2.938
205.04	0.184
205.26	-1.894
205.47	2.863
205.68	4.770
205.90	-0.567
206.11	-2.449
206.32	-3.921
206.54	-1.585
206.75	-0.681
206.96	-0.185
207.18	6.042
207.39	10.333
207.60	11.332
207.82	10.351
208.03	14.762
208.24	15.865
208.45	20.750
208.67	20.196
208.88	18.347
209.09	17.574
209.31	13.014
209.52	9.143
209.73	7.241
209.95	8.185
210.16	7.531
210.37	2.230
210.59	2.626
210.80	-0.323
211.01	1.109
211.23	0.815
211.44	-2.121
211.65	-0.295
211.86	1.946
212.08	-0.109
212.29	-2.897
212.50	-2.626
212.72	-3.764
212.93	-4.847
213.14	-1.607
213.36	-5.177
213.57	-3.894
213.78	-0.896
213.99	3.014
214.21	5.467
214.42	6.989
214.63	8.766
214.85	5.585
215.06	8.974
215.27	10.388
215.49	6.203
215.70	7.908
215.91	8.372
216.12	6.550
216.34	5.312
216.55	3.995
216.76	4.015
216.98	3.246
217.19	6.890
217.40	8.757
217.61	9.871
217.83	13.726
218.04	12.783
218.25	10.668
218.47	10.545
218.68	11.144
218.89	10.310
219.10	11.558
219.32	9.400
219.53	8.755
219.74	7.384
219.95	5.086
220.17	3.051
220.38	3.556
220.59	4.401
220.81	4.103
221.02	2.981
221.23	2.597
221.44	2.004
221.66	3.652
221.87	3.871
222.08	4.007
222.29	5.853
222.51	6.633
222.72	6.261
222.93	6.906
223.14	8.465
223.36	8.705
223.57	9.299
223.78	8.362
223.99	8.279
224.21	7.702
224.42	6.971
224.63	5.320
224.84	4.631
225.06	5.233
225.27	5.253
225.48	4.565
225.69	4.663
225.91	4.822
226.12	4.872
226.33	5.438
226.54	5.366
226.76	5.395
226.97	5.870
227.18	5.884
227.39	5.859
227.61	5.952
227.82	6.046
228.03	6.084
228.24	5.978
228.46	6.112
228.67	6.062
228.88	6.134
229.09	6.175
229.31	6.136
229.52	6.204
229.73	6.195
229.94	6.080
230.16	6.188
230.37	6.162
230.58	6.286
230.79	6.251
231.00	6.298
231.22	6.436
231.43	6.590
231.64	6.631
231.85	6.685
232.07	6.692
232.28	6.731
232.49	6.261
232.70	5.943
232.91	6.200
233.13	6.288
233.34	5.975
233.55	6.007
233.76	5.812
233.98	5.894
234.19	5.600
234.40	5.441
234.61	5.313
234.82	5.469
235.04	5.732
235.25	5.512
235.46	5.177
235.67	5.284
235.88	5.304
236.10	5.366
236.31	5.231
236.52	5.654
236.73	5.904
236.94	6.266
237.16	5.576
237.37	5.497
237.58	5.257
237.79	5.539
238.01	5.130
238.22	4.620
238.43	4.544
238.64	4.916
238.85	4.653
239.06	4.577
239.28	4.165
239.49	4.810
239.70	4.789
239.91	4.945
240.12	4.908
240.34	5.101
240.55	5.224
240.76	5.359
240.97	5.159
241.18	5.237
241.40	5.122
241.61	5.131
241.82	5.078
242.03	5.085
242.24	4.999
242.45	4.932
242.67	4.944
242.88	4.963
243.09	4.810
243.30	4.774
243.51	4.817
243.73	4.853
243.94	4.680
244.15	4.417
244.36	4.503
244.57	4.693
244.78	4.719
245.00	4.548
245.21	4.563
245.42	4.611
245.63	4.610
245.84	4.593
246.05	4.546
246.27	4.658
246.48	4.678
246.69	4.584
246.90	4.566
247.11	4.513
247.32	4.530
247.54	4.510
247.75	4.450
247.96	4.453
248.17	4.390
248.38	4.450
248.59	4.357
248.81	4.353
249.02	4.405
249.23	4.223
249.44	4.174
249.65	4.197
249.86	3.914
250.07	4.142
250.29	4.062
250.50	3.996
250.71	4.068
250.92	4.039
251.13	4.148
251.34	4.293
251.55	4.321
251.77	4.398
251.98	4.400
252.19	4.487
252.40	4.344
252.61	4.365
252.82	4.378
253.03	4.352
253.25	4.489
253.46	4.207
253.67	4.071
253.88	4.063
254.09	4.194
254.30	3.935
254.51	4.096
254.73	4.106
254.94	4.068
255.15	4.047
255.36	3.908
255.57	3.584
255.78	3.716
255.99	3.574
256.20	3.732
256.42	3.542
256.63	3.581
256.84	3.472
257.05	3.383
257.26	3.397
257.47	3.397
257.68	3.541
257.89	3.558
258.10	3.668
258.32	3.619
258.53	3.607
258.74	3.646
258.95	3.685
259.16	3.688
259.37	3.759
259.58	3.741
259.79	3.762
260.00	3.693
260.22	3.732
260.43	3.749
260.64	3.796
260.85	3.813
261.06	3.875
261.27	3.843
261.48	3.910
261.69	3.783
261.90	3.846
262.12	3.787
262.33	3.933
262.54	3.968
262.75	3.782
262.96	3.745
263.17	3.664
263.38	3.470
263.59	3.555
263.80	3.576
264.01	3.736
264.22	3.526
264.44	3.487
264.65	3.292
264.86	3.214
265.07	3.254
265.28	3.241
265.49	3.268
265.70	3.350
265.91	3.334
266.12	3.280
266.33	3.212
266.54	3.347
266.75	3.429
266.97	3.587
267.18	3.629
267.39	3.624
267.60	3.593
267.81	3.619
268.02	3.573
268.23	3.609
268.44	3.526
268.65	3.547
268.86	3.478
269.07	3.505
269.28	3.305
269.49	3.339
269.70	3.343
269.92	3.373
270.13	3.415
270.34	3.509
270.55	3.519
270.76	3.545
270.97	3.514
271.18	3.558
271.39	3.418
271.60	3.509
271.81	3.602
272.02	3.568
272.23	3.682
272.44	3.629
272.65	3.553
272.86	3.486
273.07	3.447
273.28	3.475
273.49	3.442
273.71	3.499
273.92	3.465
274.13	3.222
274.34	3.200
274.55	3.115
274.76	2.970
274.97	2.987
275.18	2.942
275.39	2.962
275.60	2.993
275.81	3.040
276.02	2.959
276.23	3.010
276.44	3.079
276.65	3.077
276.86	3.027
277.07	3.132
277.28	3.202
277.49	3.326
277.70	3.386
277.91	3.380
278.12	3.205
278.33	3.196
278.54	3.188
278.75	3.202
278.96	3.248
279.17	3.239
279.39	3.205
279.60	3.155
279.81	3.075
280.02	3.027
280.23	3.003
280.44	3.028
280.65	3.080
280.86	3.005
281.07	3.064
281.28	3.102
281.49	2.994
281.70	3.071
281.91	3.100
282.12	3.124
282.33	3.131
282.54	3.081
282.75	3.203
282.96	3.322
283.17	3.404
283.38	3.361
283.59	3.329
283.80	3.368
284.01	3.263
284.22	3.252
284.43	3.291
284.64	3.275
284.85	3.286
285.06	3.236
285.27	3.183
285.48	3.162
285.69	3.123
285.90	3.140
286.11	3.231
286.32	3.262
286.53	3.225
286.74	3.205
286.95	3.215
287.16	3.263
287.37	3.221
287.58	3.107
287.79	3.020
288.00	2.996
288.21	2.934
288.42	2.805
288.63	2.872
288.84	2.841
289.05	2.846
289.26	2.885
289.47	2.823
289.68	2.832
289.89	2.892
290.10	2.868
290.31	2.854
290.51	2.830
290.72	2.896
290.93	2.918
291.14	2.937
291.35	2.879
291.56	2.771
291.77	2.746
291.98	2.726
292.19	2.734
292.40	2.819
292.61	2.849
292.82	2.856
293.03	2.877
293.24	2.772
293.45	2.801
293.66	2.847
293.87	2.958
294.08	2.925
294.29	2.990
294.50	2.937
294.71	2.951
294.92	3.018
295.13	3.082
295.34	3.044
295.55	3.017
295.76	2.940
295.96	2.911
296.17	2.898
296.38	2.988
296.59	2.949
296.80	2.940
297.01	2.927
297.22	2.913
297.43	2.893
297.64	2.907
297.85	2.898
298.06	2.953
298.27	2.940
298.48	2.925
298.69	2.858
298.90	2.882
299.11	2.936
299.32	2.937
299.53	2.916
299.73	2.914
299.94	2.891
300.15	2.885
300.36	2.803
300.57	2.830
300.78	2.802
300.99	2.795
301.20	2.771
301.41	2.757
301.62	2.738
301.83	2.744
302.04	2.682
302.25	2.642
302.45	2.663
302.66	2.705
302.87	2.736
303.08	2.752
303.29	2.798
303.50	2.808
303.71	2.845
303.92	2.810
304.13	2.803
304.34	2.836
304.55	2.836
304.76	2.833
304.96	2.788
305.17	2.753
305.38	2.695
305.59	2.638
305.80	2.609
306.01	2.582
306.22	2.585
306.43	2.546
306.64	2.494
306.85	2.551
307.06	2.559
307.26	2.566
307.47	2.521
307.68	2.604
307.89	2.624
308.10	2.613
308.31	2.611
308.52	2.657
308.73	2.708
308.94	2.771
309.14	2.740
309.35	2.779
309.56	2.847
309.77	2.853
309.98	2.835
310.19	2.824
310.40	2.810
310.61	2.757
310.82	2.702
311.02	2.688
311.23	2.632
311.44	2.592
311.65	2.547
311.86	2.506
312.07	2.493
312.28	2.440
312.49	2.419
312.69	2.477
312.90	2.509
313.11	2.500
313.32	2.533
313.53	2.554
313.74	2.519
313.95	2.546
314.16	2.492
314.36	2.489
314.57	2.634
314.78	2.645
314.99	2.598
315.20	2.618
315.41	2.686
315.62	2.586
315.82	2.602
316.03	2.597
316.24	2.593
316.45	2.667
316.66	2.723
316.87	2.661
317.08	2.664
317.28	2.692
317.49	2.635
317.70	2.601
317.91	2.621
318.12	2.547
318.33	2.597
318.54	2.603
318.74	2.541
318.95	2.534
319.16	2.505
319.37	2.484
319.58	2.474
319.79	2.469
319.99	2.455
320.20	2.476
320.41	2.580
320.62	2.572
320.83	2.532
321.04	2.539
321.24	2.473
321.45	2.489
321.66	2.512
321.87	2.525
322.08	2.549
322.29	2.577
322.49	2.588
322.70	2.532
322.91	2.533
323.12	2.578
323.33	2.565
323.54	2.566
323.74	2.510
323.95	2.473
324.16	2.472
324.37	2.449
324.58	2.486
324.79	2.441
324.99	2.448
325.20	2.502
325.41	2.461
325.62	2.493
325.83	2.510
326.03	2.503
326.24	2.507
326.45	2.511
326.66	2.527
326.87	2.455
327.07	2.483
327.28	2.439
327.49	2.429
327.70	2.448
327.91	2.434
328.11	2.396
328.32	2.456
328.53	2.522
328.74	2.475
328.95	2.487
329.15	2.513
329.36	2.517
329.57	2.523
329.78	2.500
329.99	2.446
330.19	2.464
330.40	2.446
330.61	2.403
330.82	2.315
331.03	2.287
331.23	2.293
331.44	2.314
331.65	2.240
331.86	2.287
332.07	2.251
332.27	2.287
332.48	2.291
332.69	2.349
332.90	2.365
333.10	2.382
333.31	2.383
333.52	2.325
333.73	2.309
333.94	2.325
334.14	2.319
334.35	2.323
334.56	2.317
334.77	2.287
334.97	2.292
335.18	2.254
335.39	2.237
335.60	2.254
335.80	2.269
336.01	2.246
336.22	2.249
336.43	2.240
336.64	2.269
336.84	2.269
337.05	2.246
337.26	2.195
337.47	2.216
337.67	2.273
337.88	2.260
338.09	2.256
338.30	2.258
338.50	2.296
338.71	2.311
338.92	2.300
339.13	2.312
339.33	2.330
339.54	2.336
339.75	2.316
339.96	2.272
340.16	2.288
340.37	2.308
340.58	2.279
340.79	2.272
340.99	2.251
341.20	2.205
341.41	2.155
341.62	2.184
341.82	2.190
342.03	2.148
342.24	2.122
342.44	2.112
342.65	2.057
342.86	2.051
343.07	2.036
343.27	2.065
343.48	2.113
343.69	2.103
343.90	2.083
344.10	2.048
344.31	2.102
344.52	2.155
344.72	2.150
344.93	2.172
345.14	2.201
345.35	2.181
345.55	2.180
345.76	2.150
345.97	2.183
346.18	2.160
346.38	2.193
346.59	2.158
346.80	2.141
347.00	2.132
347.21	2.152
347.42	2.156
347.62	2.170
347.83	2.096
348.04	2.072
348.25	2.050
348.45	2.101
348.66	2.121
348.87	2.132
349.07	2.101
349.28	2.120
349.49	2.116
349.70	2.130
349.90	2.105
350.11	2.129
350.32	2.113
350.52	2.128
350.73	2.095
350.94	2.097
351.14	2.101
351.35	2.106
351.56	2.095
351.76	2.076
351.97	2.062
352.18	2.134
352.39	2.151
352.59	2.197
352.80	2.204
353.01	2.214
353.21	2.173
353.42	2.173
353.63	2.131
353.83	2.114
354.04	2.097
354.25	2.069
354.45	1.993
354.66	1.996
354.87	1.992
355.07	2.003
355.28	1.997
355.49	2.033
355.69	2.073
355.90	2.132
356.11	2.156
356.31	2.219
356.52	2.254
356.73	2.302
356.93	2.278
357.14	2.276
357.35	2.256
357.55	2.254
357.76	2.205
357.97	2.166
358.17	2.192
358.38	2.184
358.59	2.172
358.79	2.173
359.00	2.142
359.21	2.179
359.41	2.165
359.62	2.152
359.83	2.154
360.03	2.184
360.24	2.230
360.44	2.197
360.65	2.178
360.86	2.143
361.06	2.112
361.27	2.112
361.48	2.063
361.68	2.102
361.89	2.122
362.10	2.098
362.30	2.080
362.51	2.026
362.72	2.048
362.92	2.065
363.13	2.060
363.33	2.060
363.54	2.050
363.75	2.099
363.95	2.074
364.16	2.063
364.37	2.105
364.57	2.136
364.78	2.132
364.98	2.111
365.19	2.084
365.40	2.125
365.60	2.123
365.81	2.152
366.02	2.131
366.22	2.120
366.43	2.141
366.63	2.101
366.84	2.080
367.05	2.099
367.25	2.061
367.46	2.064
367.66	2.053
367.87	2.064
368.08	2.057
368.28	2.072
368.49	2.059
368.69	2.019
368.90	2.029
369.11	2.037
369.31	2.028
369.52	2.073
369.72	2.072
369.93	2.063
370.14	2.069
370.34	2.045
370.55	2.030
370.75	2.042
370.96	2.039
371.17	2.052
371.37	2.056
371.58	2.066
371.78	2.055
371.99	2.077
372.20	2.060
372.40	2.045
372.61	2.066
372.81	2.097
373.02	2.090
373.23	2.117
373.43	2.120
373.64	2.122
373.84	2.107
374.05	2.114
374.25	2.113
374.46	2.102
374.67	2.111
374.87	2.118
375.08	2.072
375.28	2.072
375.49	2.061
375.69	2.070
375.90	2.054
376.11	2.072
376.31	2.059
376.52	2.060
376.72	2.093
376.93	2.085
377.13	2.069
377.34	2.065
377.55	2.093
377.75	2.098
377.96	2.053
378.16	2.035
378.37	2.054
378.57	2.066
378.78	2.050
378.98	2.028
379.19	2.048
379.40	2.026
379.60	2.016
379.81	1.985
380.01	1.979
380.22	1.978
380.42	1.975
380.63	1.955
380.83	1.933
381.04	1.927
381.24	1.936
381.45	1.940
381.66	1.970
381.86	1.999
382.07	2.003
382.27	2.025
382.48	2.043
382.68	2.053
382.89	2.042
383.09	2.047
383.30	2.049
383.50	2.048
383.71	2.007
383.91	1.999
384.12	1.996
384.32	1.992
384.53	1.973
384.73	1.975
384.94	1.971
385.15	1.973
385.35	1.992
385.56	2.007
385.76	1.974
385.97	2.003
386.17	1.997
386.38	1.988
386.58	1.982
386.79	2.009
386.99	2.001
387.20	2.032
387.40	2.021
387.61	2.015
387.81	1.988
388.02	2.008
388.22	2.004
388.43	2.005
388.63	1.995
388.84	2.004
389.04	1.996
389.25	2.011
389.45	1.958
389.66	1.958
389.86	1.956
390.07	1.973
390.27	1.968
390.48	1.954
390.68	1.957
390.89	1.980
391.09	2.004
391.30	1.978
391.50	1.974
391.71	2.017
391.91	2.020
392.12	2.038
392.32	2.055
392.53	2.080
392.73	2.090
392.94	2.095
393.14	2.091
393.35	2.082
393.55	2.089
393.75	2.067
393.96	2.057
394.16	2.038
394.37	2.011
394.57	1.997
394.78	1.999
394.98	1.984
395.19	1.965
395.39	1.965
395.60	1.950
395.80	1.956
396.01	1.952
396.21	1.963
396.42	1.974
396.62	1.976
396.83	1.964
397.03	1.971
397.23	1.980
397.44	1.996
397.64	2.007
397.85	2.005
398.05	2.002
398.26	2.029
398.46	2.014
398.67	2.018
398.87	2.011
399.08	2.014
399.28	1.991
399.48	1.980
399.69	1.980
399.89	1.967
400.10	1.985
400.30	1.982
400.51	1.978
400.71	1.983
400.92	1.998
401.12	1.997
401.32	1.993
401.53	1.982
401.73	1.989
401.94	1.999
402.14	2.003
402.35	2.021
402.55	2.039
402.75	2.032
402.96	2.037
403.16	2.025
403.37	2.018
403.57	2.037
403.78	2.040
403.98	2.051
404.18	2.041
404.39	2.025
404.59	1.998
404.80	1.971
405.00	1.969
405.21	1.957
405.41	1.961
405.61	1.978
405.82	1.982
406.02	2.001
406.23	2.009
406.43	2.015
406.63	2.041
406.84	2.041
407.04	2.069
407.25	2.075
407.45	2.098
407.65	2.096
407.86	2.076
408.06	2.030
408.27	2.014
408.47	2.009
408.67	1.985
408.88	1.964
409.08	1.961
409.29	1.944
409.49	1.952
409.69	1.945
409.90	1.956
410.10	1.968
410.31	1.997
410.51	2.010
410.71	1.996
410.92	1.992
411.12	1.990
411.33	2.006
411.53	2.018
411.73	1.989
411.94	1.991
412.14	1.981
412.34	2.003
412.55	2.021
412.75	2.022
412.96	2.027
413.16	2.039
413.36	2.034
413.57	2.017
413.77	2.011
413.97	2.042
414.18	2.047
414.38	2.030
414.59	2.015
414.79	1.987
414.99	1.975
415.20	1.966
415.40	1.974
415.60	1.967
415.81	1.961
416.01	1.957
416.21	1.948
416.42	1.949
416.62	1.965
416.83	1.948
417.03	1.954
417.23	1.954
417.44	1.975
417.64	1.975
417.84	1.987
418.05	2.006
418.25	2.012
418.45	2.017
418.66	2.005
418.86	1.996
419.06	2.013
419.27	2.012
419.47	2.022
419.67	2.019
419.88	2.013
420.08	2.011
420.28	1.990
420.49	1.993
420.69	1.982
420.89	1.967
421.10	1.972
421.30	1.967
421.50	1.970
421.71	1.956
421.91	1.951
422.11	1.956
422.32	1.964
422.52	1.969
422.72	1.970
422.93	1.985
423.13	2.014
423.33	2.020
423.54	2.022
423.74	2.005
423.94	2.006
424.15	2.004
424.35	2.007
424.55	1.998
424.76	2.012
424.96	2.004
425.16	1.991
425.36	1.983
425.57	1.974
425.77	1.972
425.97	1.986
426.18	2.000
426.38	1.990
426.58	1.990
426.79	1.997
426.99	1.982
427.19	1.988
427.39	1.998
427.60	1.990
427.80	2.012
428.00	2.028
428.21	2.043
428.41	2.040
428.61	2.050
428.82	2.051
429.02	2.055
429.22	2.082
429.42	2.082
429.63	2.078
429.83	2.080
430.03	2.083
430.24	2.078
430.44	2.078
430.64	2.089
430.84	2.095
431.05	2.087
431.25	2.090
431.45	2.079
431.65	2.073
431.86	2.068
432.06	2.078
432.26	2.079
432.47	2.072
432.67	2.061
432.87	2.061
433.07	2.061
433.28	2.064
433.48	2.055
433.68	2.041
433.88	2.043
434.09	2.048
434.29	2.032
434.49	2.021
434.69	2.023
434.90	2.028
435.10	2.005
435.30	2.010
435.51	2.011
435.71	2.013
435.91	2.028
436.11	2.022
436.32	2.020
436.52	2.038
436.72	2.046
436.92	2.061
437.13	2.064
437.33	2.076
437.53	2.076
437.73	2.064
437.93	2.069
438.14	2.077
438.34	2.074
438.54	2.077
438.74	2.070
438.95	2.056
439.15	2.045
439.35	2.038
439.55	2.035
439.76	2.041
439.96	2.053
440.16	2.060
440.36	2.060
440.56	2.064
440.77	2.054
440.97	2.053
441.17	2.062
441.37	2.056
441.58	2.060
441.78	2.087
441.98	2.092
442.18	2.096
442.38	2.085
442.59	2.079
442.79	2.085
442.99	2.103
443.19	2.105
443.40	2.117
443.60	2.130
443.80	2.131
444.00	2.104
444.20	2.083
444.41	2.066
444.61	2.072
444.81	2.074
445.01	2.076
445.21	2.062
445.42	2.061
445.62	2.056
445.82	2.044
446.02	2.051
446.22	2.053
446.43	2.063
446.63	2.070
446.83	2.063
447.03	2.064
447.23	2.066
447.44	2.078
447.64	2.091
447.84	2.092
448.04	2.106
448.24	2.099
448.44	2.108
448.65	2.100
448.85	2.095
449.05	2.113
449.25	2.116
449.45	2.119
449.65	2.131
449.86	2.132
450.06	2.146
450.26	2.149
450.46	2.150
450.66	2.149
450.87	2.165
451.07	2.186
451.27	2.179
451.47	2.176
451.67	2.182
451.87	2.172
452.08	2.182
452.28	2.160
452.48	2.156
452.68	2.168
452.88	2.161
453.08	2.149
453.28	2.140
453.49	2.145
453.69	2.158
453.89	2.158
454.09	2.165
454.29	2.160
454.49	2.172
454.70	2.179
454.90	2.177
455.10	2.176
455.30	2.185
455.50	2.196
455.70	2.191
455.90	2.187
456.11	2.187
456.31	2.186
456.51	2.184
456.71	2.190
456.91	2.207
457.11	2.204
457.31	2.197
457.51	2.205
457.72	2.198
457.92	2.196
458.12	2.182
458.32	2.177
458.52	2.184
458.72	2.181
458.92	2.171
459.12	2.155
459.33	2.155
459.53	2.173
459.73	2.175
459.93	2.163
460.13	2.170
460.33	2.177
460.53	2.173
460.73	2.162
460.93	2.157
461.14	2.166
461.34	2.169
461.54	2.169
461.74	2.171
461.94	2.165
462.14	2.181
462.34	2.179
462.54	2.180
462.74	2.172
462.95	2.174
463.15	2.188
463.35	2.179
463.55	2.169
463.75	2.177
463.95	2.173
464.15	2.176
464.35	2.187
464.55	2.184
464.75	2.188
464.95	2.212
465.16	2.213
465.36	2.210
465.56	2.209
465.76	2.239
465.96	2.244
466.16	2.252
466.36	2.249
466.56	2.234
466.76	2.226
466.96	2.229
467.16	2.231
467.36	2.231
467.57	2.232
467.77	2.237
467.97	2.231
468.17	2.232
468.37	2.214
468.57	2.231
468.77	2.241
468.97	2.251
469.17	2.251
469.37	2.245
469.57	2.254
469.77	2.263
469.97	2.266
470.17	2.266
470.37	2.256
470.57	2.270
470.78	2.243
470.98	2.250
471.18	2.265
471.38	2.267
471.58	2.270
471.78	2.277
471.98	2.271
472.18	2.278
472.38	2.283
472.58	2.298
472.78	2.310
472.98	2.333
473.18	2.332
473.38	2.330
473.58	2.335
473.78	2.349
473.98	2.351
474.18	2.360
474.38	2.351
474.58	2.354
474.78	2.362
474.98	2.358
475.18	2.358
475.38	2.369
475.58	2.362
475.79	2.365
475.99	2.342
476.19	2.347
476.39	2.339
476.59	2.340
476.79	2.348
476.99	2.344
477.19	2.337
477.39	2.327
477.59	2.324
477.79	2.334
477.99	2.337
478.19	2.338
478.39	2.343
478.59	2.353
478.79	2.361
478.99	2.361
479.19	2.365
479.39	2.379
479.59	2.392
479.79	2.397
479.99	2.395
480.19	2.390
480.39	2.400
480.59	2.386
480.79	2.394
480.99	2.399
481.19	2.400
481.39	2.395
481.59	2.389
481.79	2.397
481.99	2.403
482.19	2.406
482.39	2.410
482.59	2.419
482.79	2.417
482.99	2.405
483.19	2.421
483.39	2.453
483.59	2.479
483.79	2.481
483.99	2.471
484.19	2.457
484.39	2.456
484.58	2.458
484.78	2.458
484.98	2.462
485.18	2.469
485.38	2.466
485.58	2.439
485.78	2.412
485.98	2.412
486.18	2.419
486.38	2.438
486.58	2.448
486.78	2.448
486.98	2.449
487.18	2.457
487.38	2.470
487.58	2.471
487.78	2.477
487.98	2.484
488.18	2.485
488.38	2.489
488.58	2.486
488.78	2.486
488.98	2.492
489.18	2.500
489.37	2.506
489.57	2.506
489.77	2.513
489.97	2.524
490.17	2.530
490.37	2.541
490.57	2.543
490.77	2.554
490.97	2.559
491.17	2.560
491.37	2.562
491.57	2.563
491.77	2.562
491.97	2.562
492.17	2.565
492.37	2.569
492.56	2.566
492.76	2.570
492.96	2.575
493.16	2.584
493.36	2.584
493.56	2.594
493.76	2.591
493.96	2.598
494.16	2.602
494.36	2.602
494.56	2.604
494.76	2.616
494.95	2.631
495.15	2.631
495.35	2.628
495.55	2.646
495.75	2.647
495.95	2.664
496.15	2.675
496.35	2.688
496.55	2.693
496.75	2.699
496.95	2.704
497.14	2.705
497.34	2.716
497.54	2.725
497.74	2.732
497.94	2.739
498.14	2.738
498.34	2.741
498.54	2.738
498.74	2.742
498.93	2.752
499.13	2.751
499.33	2.760
499.53	2.764
499.73	2.770
499.93	2.779
500.13	2.782
500.33	2.789
500.53	2.793
500.72	2.801
500.92	2.804
501.12	2.804
501.32	2.819
501.52	2.822
501.72	2.827
501.92	2.827
502.12	2.823
502.31	2.828
502.51	2.836
502.71	2.847
502.91	2.842
503.11	2.859
503.31	2.868
503.51	2.859
503.70	2.859
503.90	2.868
504.10	2.885
504.30	2.893
504.50	2.906
504.70	2.918
504.90	2.917
505.09	2.939
505.29	2.935
505.49	2.934
505.69	2.954
505.89	2.966
506.09	2.962
506.29	2.960
506.48	2.974
506.68	2.979
506.88	2.981
507.08	2.997
507.28	2.998
507.48	3.007
507.67	3.011
507.87	3.013
508.07	3.009
508.27	3.021
508.47	3.022
508.67	3.025
508.86	3.027
509.06	3.030
509.26	3.029
509.46	3.035
509.66	3.043
509.85	3.052
510.05	3.057
510.25	3.066
510.45	3.085
510.65	3.094
510.85	3.090
511.04	3.088
511.24	3.097
511.44	3.104
511.64	3.112
511.84	3.120
512.03	3.123
512.23	3.134
512.43	3.143
512.63	3.136
512.83	3.148
513.02	3.166
513.22	3.183
513.42	3.198
513.62	3.201
513.82	3.211
514.01	3.222
514.21	3.234
514.41	3.237
514.61	3.249
514.81	3.259
515.00	3.253
515.20	3.256
515.40	3.273
515.60	3.269
515.80	3.284
515.99	3.281
516.19	3.282
516.39	3.287
516.59	3.298
516.78	3.302
516.98	3.300
517.18	3.308
517.38	3.309
517.58	3.298
517.77	3.303
517.97	3.300
518.17	3.308
518.37	3.314
518.56	3.318
518.76	3.321
518.96	3.324
519.16	3.337
519.36	3.351
519.55	3.358
519.75	3.366
519.95	3.375
520.15	3.384
520.34	3.393
520.54	3.398
520.74	3.399
520.94	3.406
521.13	3.423
521.33	3.423
521.53	3.415
521.73	3.422
521.92	3.432
522.12	3.449
522.32	3.457
522.52	3.478
522.71	3.490
522.91	3.511
523.11	3.521
523.31	3.519
523.50	3.524
523.70	3.543
523.90	3.545
524.09	3.559
524.29	3.553
524.49	3.566
524.69	3.569
524.88	3.568
525.08	3.575
525.28	3.578
525.48	3.580
525.67	3.594
525.87	3.600
526.07	3.614
526.26	3.620
526.46	3.634
526.66	3.639
526.86	3.640
527.05	3.652
527.25	3.658
527.45	3.667
527.64	3.673
527.84	3.680
528.04	3.687
528.24	3.697
528.43	3.708
528.63	3.715
528.83	3.720
529.02	3.725
529.22	3.725
529.42	3.728
529.62	3.733
529.81	3.740
530.01	3.744
530.21	3.746
530.40	3.749
530.60	3.746
530.80	3.749
530.99	3.758
531.19	3.769
531.39	3.786
531.58	3.789
531.78	3.802
531.98	3.807
532.18	3.819
532.37	3.838
532.57	3.846
532.77	3.863
532.96	3.863
533.16	3.871
533.36	3.880
533.55	3.888
533.75	3.895
533.95	3.902
534.14	3.916
534.34	3.928
534.54	3.936
534.73	3.947
534.93	3.952
535.13	3.969
535.32	3.967
535.52	3.972
535.72	3.983
535.91	4.006
536.11	4.006
536.31	4.004
536.50	4.009
536.70	4.021
536.90	4.028
537.09	4.045
537.29	4.056
537.48	4.085
537.68	4.091
537.88	4.099
538.07	4.098
538.27	4.115
538.47	4.140
538.66	4.149
538.86	4.158
539.06	4.165
539.25	4.165
539.45	4.171
539.65	4.176
539.84	4.197
540.04	4.208
540.23	4.227
540.43	4.240
540.63	4.240
540.82	4.247
541.02	4.243
541.22	4.246
541.41	4.258
541.61	4.261
541.80	4.259
542.00	4.255
542.20	4.255
542.39	4.254
542.59	4.258
542.79	4.258
542.98	4.260
543.18	4.270
543.37	4.285
543.57	4.291
543.77	4.300
543.96	4.308
544.16	4.321
544.35	4.334
544.55	4.350
544.75	4.352
544.94	4.370
545.14	4.389
545.33	4.412
545.53	4.418
545.73	4.420
545.92	4.438
546.12	4.454
546.31	4.461
546.51	4.465
546.71	4.466
546.90	4.483
547.10	4.493
547.29	4.505
547.49	4.510
547.69	4.527
547.88	4.541
548.08	4.542
548.27	4.550
548.47	4.566
548.66	4.578
548.86	4.594
549.06	4.606
549.25	4.626
549.45	4.635
549.64	4.640
549.84	4.638
550.03	4.652
550.23	4.680
550.43	4.691
550.62	4.700
550.82	4.716
551.01	4.728
551.21	4.749
551.40	4.756
551.60	4.783
551.80	4.801
551.99	4.817
552.19	4.831
552.38	4.825
552.58	4.830
552.77	4.840
552.97	4.857
553.16	4.857
553.36	4.858
553.56	4.876
553.75	4.866
553.95	4.869
554.14	4.871
554.34	4.886
554.53	4.904
554.73	4.923
554.92	4.932
555.12	4.940
555.31	4.954
555.51	4.983
555.70	4.981
555.90	5.005
556.10	5.013
556.29	5.039
556.49	5.036
556.68	5.048
556.88	5.053
557.07	5.067
557.27	5.077
557.46	5.087
557.66	5.088
557.85	5.100
558.05	5.099
558.24	5.121
558.44	5.133
558.63	5.140
558.83	5.133
559.02	5.145
559.22	5.141
559.41	5.148
559.61	5.158
559.80	5.157
560.00	5.160
560.19	5.168
560.39	5.167
560.58	5.167
560.78	5.186
560.97	5.198
561.17	5.214
561.36	5.237
561.56	5.240
561.75	5.256
561.95	5.270
562.14	5.284
562.34	5.292
562.53	5.304
562.73	5.306
562.92	5.309
563.12	5.329
563.31	5.327
563.51	5.340
563.70	5.368
563.90	5.387
564.09	5.405
564.29	5.424
564.48	5.437
564.68	5.453
564.87	5.479
565.07	5.494
565.26	5.502
565.45	5.520
565.65	5.521
565.84	5.524
566.04	5.512
566.23	5.523
566.43	5.528
566.62	5.541
566.82	5.540
567.01	5.545
567.21	5.544
567.40	5.546
567.60	5.561
567.79	5.567
567.98	5.581
568.18	5.601
568.37	5.604
568.57	5.606
568.76	5.616
568.96	5.640
569.15	5.642
569.35	5.670
569.54	5.691
569.73	5.689
569.93	5.706
570.12	5.709
570.32	5.719
570.51	5.732
570.71	5.745
570.90	5.750
571.09	5.767
571.29	5.790
571.48	5.797
571.68	5.798
571.87	5.812
572.07	5.819
572.26	5.829
572.45	5.849
572.65	5.859
572.84	5.859
573.04	5.878
573.23	5.878
573.43	5.883
573.62	5.892
573.81	5.905
574.01	5.911
574.20	5.909
574.40	5.919
574.59	5.908
574.78	5.911
574.98	5.933
575.17	5.934
575.37	5.938
575.56	5.944
575.75	5.948
575.95	5.962
576.14	5.968
576.34	5.975
576.53	5.976
576.72	5.989
576.92	6.011
577.11	6.019
577.31	6.038
577.50	6.049
577.69	6.068
577.89	6.089
578.08	6.097
578.28	6.116
578.47	6.139
578.66	6.162
578.86	6.187
579.05	6.198
579.24	6.212
579.44	6.218
579.63	6.226
579.83	6.228
580.02	6.230
580.21	6.245
580.41	6.255
580.60	6.268
580.79	6.277
580.99	6.282
581.18	6.291
581.38	6.298
581.57	6.320
581.76	6.337
581.96	6.356
582.15	6.373
582.34	6.381
582.54	6.386
582.73	6.410
582.92	6.426
583.12	6.434
583.31	6.448
583.50	6.471
583.70	6.464
583.89	6.476
584.08	6.485
584.28	6.497
584.47	6.502
584.66	6.523
584.86	6.524
585.05	6.518
585.24	6.530
585.44	6.540
585.63	6.542
585.82	6.558
586.02	6.558
586.21	6.569
586.40	6.569
586.60	6.596
586.79	6.609
586.98	6.603
587.18	6.626
587.37	6.642
587.56	6.635
587.76	6.659
587.95	6.669
588.14	6.689
588.34	6.690
588.53	6.717
588.72	6.723
588.92	6.727
589.11	6.753
589.30	6.770
589.50	6.789
589.69	6.818
589.88	6.818
590.07	6.829
590.27	6.843
590.46	6.857
590.65	6.858
590.85	6.872
591.04	6.872
591.23	6.894
591.43	6.890
591.62	6.882
591.81	6.874
592.00	6.875
592.20	6.880
592.39	6.895
592.58	6.913
592.78	6.925
592.97	6.927
593.16	6.946
593.35	6.953
593.55	6.964
593.74	6.991
593.93	7.015
594.13	7.038
594.32	7.061
594.51	7.074
594.70	7.072
594.90	7.085
595.09	7.068
595.28	7.083
595.47	7.081
595.67	7.097
595.86	7.096
596.05	7.112
596.24	7.128
596.44	7.124
596.63	7.121
596.82	7.129
597.02	7.120
597.21	7.159
597.40	7.167
597.59	7.175
597.79	7.169
597.98	7.176
598.17	7.175
598.36	7.174
598.56	7.191
598.75	7.189
598.94	7.206
599.13	7.228
599.32	7.246
599.52	7.251
599.71	7.273
599.90	7.293
600.09	7.313
600.29	7.326
600.48	7.340
600.67	7.335
600.86	7.364
601.06	7.380
601.25	7.402
601.44	7.394
601.63	7.419
601.82	7.422
602.02	7.432
602.21	7.433
602.40	7.457
602.59	7.472
602.79	7.506
602.98	7.510
603.17	7.514
603.36	7.526
603.55	7.529
603.75	7.526
603.94	7.545
604.13	7.561
604.32	7.580
604.51	7.574
604.71	7.578
604.90	7.581
605.09	7.588
605.28	7.592
605.47	7.593
605.67	7.604
605.86	7.622
606.05	7.639
606.24	7.641
606.43	7.645
606.63	7.665
606.82	7.678
607.01	7.687
607.20	7.710
607.39	7.732
607.59	7.734
607.78	7.766
607.97	7.771
608.16	7.762
608.35	7.780
608.54	7.787
608.74	7.793
608.93	7.802
609.12	7.816
609.31	7.822
609.50	7.836
609.69	7.863
609.89	7.857
610.08	7.873
610.27	7.888
610.46	7.913
610.65	7.932
610.84	7.940
611.04	7.949
611.23	7.956
611.42	7.973
611.61	7.963
611.80	7.973
611.99	7.975
612.19	7.983
612.38	7.997
612.57	8.004
612.76	8.013
612.95	8.033
613.14	8.062
613.33	8.075
613.53	8.088
613.72	8.124
613.91	8.116
614.10	8.162
614.29	8.165
614.48	8.182
614.67	8.184
614.86	8.187
615.06	8.193
615.25	8.197
615.44	8.215
615.63	8.225
615.82	8.227
616.01	8.255
616.20	8.257
616.39	8.259
616.59	8.247
616.78	8.274
616.97	8.301
617.16	8.314
617.35	8.317
617.54	8.320
617.73	8.340
617.92	8.353
618.12	8.352
618.31	8.342
618.50	8.361
618.69	8.378
618.88	8.389
619.07	8.387
619.26	8.394
619.45	8.409
619.64	8.420
619.83	8.431
620.03	8.443
620.22	8.453
620.41	8.490
620.60	8.513
620.79	8.537
620.98	8.526
621.17	8.550
621.36	8.575
621.55	8.593
621.74	8.622
621.93	8.630
622.12	8.645
622.32	8.669
622.51	8.668
622.70	8.671
622.89	8.682
623.08	8.711
623.27	8.720
623.46	8.718
623.65	8.726
623.84	8.722
624.03	8.744
624.22	8.754
624.41	8.763
624.60	8.781
624.79	8.807
624.99	8.813
625.18	8.803
625.37	8.799
625.56	8.823
625.75	8.839
625.94	8.846
626.13	8.847
626.32	8.837
626.51	8.855
626.70	8.861
626.89	8.853
627.08	8.890
627.27	8.901
627.46	8.914
627.65	8.912
627.84	8.913
628.03	8.938
628.22	8.952
628.41	8.977
628.60	8.973
628.79	8.986
628.98	8.985
629.17	8.971
629.37	9.001
629.56	9.007
629.75	9.014
629.94	9.022
630.13	9.021
630.32	9.020
630.51	9.037
630.70	9.054
630.89	9.061
631.08	9.089
631.27	9.106
631.46	9.114
631.65	9.137
631.84	9.158
632.03	9.166
632.22	9.198
632.41	9.218
632.60	9.232
632.79	9.241
632.98	9.249
633.17	9.259
633.36	9.276
633.55	9.281
633.74	9.279
633.93	9.306
634.12	9.328
634.31	9.321
634.50	9.326
634.69	9.328
634.88	9.339
635.07	9.351
635.26	9.351
635.45	9.350
635.64	9.358
635.83	9.395
636.02	9.385
636.21	9.397
636.40	9.405
636.59	9.414
636.78	9.424
636.96	9.440
637.15	9.456
637.34	9.470
637.53	9.491
637.72	9.503
637.91	9.494
638.10	9.506
638.29	9.525
638.48	9.536
638.67	9.535
638.86	9.543
639.05	9.571
639.24	9.564
639.43	9.599
639.62	9.589
639.81	9.612
640.00	9.633
640.19	9.668
640.38	9.678
640.57	9.697
640.76	9.737
640.95	9.756
641.14	9.746
641.32	9.797
641.51	9.810
641.70	9.841
641.89	9.846
642.08	9.862
642.27	9.854
642.46	9.854
642.65	9.839
642.84	9.835
643.03	9.852
643.22	9.875
643.41	9.889
643.60	9.904
643.79	9.932
643.98	9.915
644.16	9.925
644.35	9.948
644.54	9.961
644.73	9.992
644.92	10.022
645.11	10.030
645.30	10.046
645.49	10.057
645.68	10.030
645.87	10.016
646.06	10.059
646.24	10.059
646.43	10.077
646.62	10.092
646.81	10.104
647.00	10.092
647.19	10.095
647.38	10.088
647.57	10.079
647.76	10.135
647.95	10.154
648.13	10.151
648.32	10.171
648.51	10.172
648.70	10.162
648.89	10.185
649.08	10.205
649.27	10.219
649.46	10.231
649.65	10.238
649.83	10.229
650.02	10.225
650.21	10.260
650.40	10.251
650.59	10.264
650.78	10.304
650.97	10.302
651.16	10.312
651.34	10.317
651.53	10.336
651.72	10.344
651.91	10.332
652.10	10.345
652.29	10.342
652.48	10.379
652.66	10.376
652.85	10.383
653.04	10.408
653.23	10.415
653.42	10.427
653.61	10.423
653.80	10.426
653.98	10.456
654.17	10.474
654.36	10.483
654.55	10.481
654.74	10.508
654.93	10.535
655.11	10.528
655.30	10.539
655.49	10.564
655.68	10.606
655.87	10.652
656.06	10.666
656.24	10.684
656.43	10.679
656.62	10.689
656.81	10.687
657.00	10.677
657.19	10.708
657.37	10.724
657.56	10.752
657.75	10.707
657.94	10.703
658.13	10.718
658.31	10.713
658.50	10.732
658.69	10.748
658.88	10.765
659.07	10.777
659.26	10.765
659.44	10.761
659.63	10.759
659.82	10.808
660.01	10.824
660.20	10.832
660.38	10.851
660.57	10.887
660.76	10.888
660.95	10.902
661.14	10.908
661.32	10.931
661.51	10.961
661.70	10.979
661.89	10.990
662.08	10.993
662.26	11.017
662.45	11.030
662.64	11.009
662.83	11.034
663.01	11.032
663.20	11.042
663.39	11.055
663.58	11.066
663.77	11.045
663.95	11.063
664.14	11.071
664.33	11.064
664.52	11.085
664.70	11.105
664.89	11.139
665.08	11.180
665.27	11.202
665.45	11.214
665.64	11.224
665.83	11.250
666.02	11.252
666.20	11.255
666.39	11.272
666.58	11.288
666.77	11.314
666.95	11.291
667.14	11.282
667.33	11.308
667.52	11.320
667.70	11.325
667.89	11.340
668.08	11.362
668.27	11.384
668.45	11.405
668.64	11.416
668.83	11.427
669.02	11.443
669.20	11.469
669.39	11.468
669.58	11.489
669.77	11.502
669.95	11.498
670.14	11.480
670.33	11.491
670.51	11.489
670.70	11.506
670.89	11.519
671.08	11.546
671.26	11.555
671.45	11.554
671.64	11.549
671.82	11.566
672.01	11.618
672.20	11.647
672.39	11.654
672.57	11.663
672.76	11.662
672.95	11.651
673.13	11.628
673.32	11.642
673.51	11.638
673.70	11.634
673.88	11.634
674.07	11.622
674.26	11.635
674.44	11.665
674.63	11.686
674.82	11.699
675.00	11.703
675.19	11.742
675.38	11.755
675.56	11.804
675.75	11.823
675.94	11.832
676.12	11.810
676.31	11.826
676.50	11.821
676.69	11.843
676.87	11.860
677.06	11.875
677.25	11.898
677.43	11.928
677.62	11.928
677.81	11.971
677.99	12.014
678.18	12.056
678.37	12.054
678.55	12.070
678.74	12.061
678.93	12.073
679.11	12.089
679.30	12.074
679.48	12.064
679.67	12.073
679.86	12.071
680.04	12.065
680.23	12.060
680.42	12.076
680.60	12.093
680.79	12.124
680.98	12.128
681.16	12.132
681.35	12.162
681.54	12.108
681.72	12.114
681.91	12.140
682.10	12.157
682.28	12.187
682.47	12.196
682.65	12.207
682.84	12.211
683.03	12.199
683.21	12.220
683.40	12.233
683.59	12.302
683.77	12.311
683.96	12.285
684.14	12.306
684.33	12.327
684.52	12.359
684.70	12.368
684.89	12.372
685.07	12.412
685.26	12.422
685.45	12.421
685.63	12.436
685.82	12.463
686.00	12.493
686.19	12.501
686.38	12.498
686.56	12.504
686.75	12.512
686.93	12.512
687.12	12.500
687.31	12.508
687.49	12.519
687.68	12.536
687.86	12.529
688.05	12.540
688.24	12.560
688.42	12.552
688.61	12.554
688.79	12.582
688.98	12.595
689.17	12.604
689.35	12.628
689.54	12.643
689.72	12.635
689.91	12.641
690.09	12.653
690.28	12.643
690.47	12.657
690.65	12.660
690.84	12.656
691.02	12.675
691.21	12.691
691.39	12.699
691.58	12.697
691.76	12.757
691.95	12.788
692.14	12.828
692.32	12.836
692.51	12.903
692.69	12.928
692.88	12.948
693.06	12.961
693.25	13.013
693.43	13.004
693.62	13.032
693.81	12.989
693.99	12.982
694.18	12.957
694.36	12.978
694.55	12.963
694.73	12.955
694.92	12.955
695.10	12.918
695.29	12.886
695.47	12.924
695.66	12.911
695.84	12.934
696.03	12.956
696.21	12.977
696.40	12.952
696.59	12.975
696.77	13.000
696.96	13.012
697.14	13.081
697.33	13.139
697.51	13.153
697.70	13.196
697.88	13.219
698.07	13.235
698.25	13.236
698.44	13.277
698.62	13.249
698.81	13.267
698.99	13.291
699.18	13.294
699.36	13.273
699.55	13.259
699.73	13.243
699.92	13.235
700.10	13.233
700.29	13.248
700.47	13.257
700.66	13.293
700.84	13.295
701.03	13.279
701.21	13.300
701.40	13.296
701.58	13.336
701.77	13.358
701.95	13.430
702.13	13.471
702.32	13.518
702.50	13.546
702.69	13.558
702.87	13.588
703.06	13.652
703.24	13.663
703.43	13.719
703.61	13.747
703.80	13.763
703.98	13.710
704.17	13.682
704.35	13.671
704.54	13.682
704.72	13.679
704.90	13.667
705.09	13.632
705.27	13.668
705.46	13.690
705.64	13.655
705.83	13.670
706.01	13.690
706.20	13.734
706.38	13.727
706.56	13.728
706.75	13.747
706.93	13.759
707.12	13.803
707.30	13.774
707.49	13.776
707.67	13.847
707.86	13.888
708.04	13.918
708.22	13.917
708.41	13.929
708.59	13.930
708.78	13.929
708.96	13.970
709.14	13.979
709.33	14.002
709.51	14.023
709.70	14.032
709.88	14.006
710.07	14.025
710.25	14.064
710.43	14.079
710.62	14.116
710.80	14.129
710.99	14.157
711.17	14.154
711.35	14.158
711.54	14.164
711.72	14.164
711.91	14.222
712.09	14.219
712.27	14.194
712.46	14.231
712.64	14.233
712.83	14.250
713.01	14.235
713.19	14.250
713.38	14.271
713.56	14.269
713.75	14.280
713.93	14.263
714.11	14.294
714.30	14.343
714.48	14.340
714.66	14.345
714.85	14.376
715.03	14.400
715.22	14.404
715.40	14.444
715.58	14.473
715.77	14.486
715.95	14.550
716.13	14.547
716.32	14.517
716.50	14.529
716.68	14.557
716.87	14.561
717.05	14.581
717.24	14.595
717.42	14.572
717.60	14.564
717.79	14.572
717.97	14.512
718.15	14.515
718.34	14.576
718.52	14.597
718.70	14.605
718.89	14.621
719.07	14.591
719.25	14.634
719.44	14.686
719.62	14.696
719.80	14.699
719.99	14.719
720.17	14.759
720.35	14.756
720.54	14.723
720.72	14.740
720.90	14.775
721.09	14.802
721.27	14.777
721.45	14.770
721.64	14.801
721.82	14.822
722.00	14.859
722.19	14.855
722.37	14.851
722.55	14.901
722.74	14.902
722.92	14.894
723.10	14.902
723.28	14.971
723.47	14.983
723.65	15.007
723.83	15.038
724.02	15.045
724.20	15.063
724.38	15.058
724.57	15.052
724.75	15.052
724.93	15.076
725.11	15.072
725.30	15.037
725.48	15.038
725.66	15.047
725.85	15.047
726.03	15.027
726.21	15.074
726.39	15.097
726.58	15.129
726.76	15.145
726.94	15.148
727.13	15.172
727.31	15.169
727.49	15.216
727.67	15.219
727.86	15.243
728.04	15.307
728.22	15.266
728.40	15.302
728.59	15.312
728.77	15.348
728.95	15.371
729.13	15.385
729.32	15.391
729.50	15.414
729.68	15.438
729.86	15.446
730.05	15.463
730.23	15.519
730.41	15.524
730.59	15.553
730.78	15.577
730.96	15.574
731.14	15.638
731.32	15.678
731.51	15.638
731.69	15.648
731.87	15.623
732.05	15.625
732.24	15.604
732.42	15.624
732.60	15.639
732.78	15.612
732.97	15.610
733.15	15.574
733.33	15.557
733.51	15.559
733.69	15.533
733.88	15.579
734.06	15.570
734.24	15.600
734.42	15.595
734.60	15.581
734.79	15.592
734.97	15.641
735.15	15.647
735.33	15.703
735.52	15.768
735.70	15.772
735.88	15.751
736.06	15.786
736.24	15.767
736.43	15.799
736.61	15.825
736.79	15.833
736.97	15.794
737.15	15.840
737.34	15.853
737.52	15.820
737.70	15.890
737.88	15.961
738.06	15.960
738.24	16.042
738.43	16.046
738.61	16.105
738.79	16.171
738.97	16.178
739.15	16.168
739.33	16.139
739.52	16.143
739.70	16.122
739.88	16.094
740.06	16.089
740.24	16.050
740.42	16.094
740.61	16.060
740.79	16.068
740.97	16.108
741.15	16.117
741.33	16.154
741.51	16.165
741.70	16.220
741.88	16.264
742.06	16.289
742.24	16.333
742.42	16.293
742.60	16.285
742.78	16.279
742.97	16.259
743.15	16.265
743.33	16.282
743.51	16.353
743.69	16.350
743.87	16.345
744.05	16.396
744.24	16.418
744.42	16.448
744.60	16.453
744.78	16.468
744.96	16.590
745.14	16.668
745.32	16.668
745.50	16.637
745.69	16.658
745.87	16.680
746.05	16.611
746.23	16.576
746.41	16.615
746.59	16.641
746.77	16.660
746.95	16.587
747.13	16.563
747.32	16.568
747.50	16.607
747.68	16.651
747.86	16.661
748.04	16.747
748.22	16.767
748.40	16.777
748.58	16.780
748.76	16.754
748.94	16.792
749.13	16.787
749.31	16.828
749.49	16.820
749.67	16.826
749.85	16.889
750.03	16.880
750.21	16.887
750.39	16.904
750.57	16.939
750.75	16.961
750.93	16.933
751.11	17.005
751.30	17.004
751.48	17.019
751.66	17.010
751.84	16.968
752.02	17.009
752.20	17.055
752.38	17.062
752.56	17.104
752.74	17.127
752.92	17.173
753.10	17.173
753.28	17.196
753.46	17.210
753.64	17.193
753.82	17.212
754.00	17.200
754.18	17.231
754.37	17.219
754.55	17.268
754.73	17.233
754.91	17.294
755.09	17.288
755.27	17.315
755.45	17.330
755.63	17.413
755.81	17.417
755.99	17.416
756.17	17.407
756.35	17.426
756.53	17.381
756.71	17.460
756.89	17.428
757.07	17.360
757.25	17.324
757.43	17.319
757.61	17.208
757.79	17.230
757.97	17.230
758.15	17.315
758.33	17.363
758.51	17.402
758.69	17.402
758.87	17.412
759.05	17.501
759.23	17.572
759.41	17.640
759.59	17.727
759.77	17.710
759.95	17.772
760.13	17.741
760.31	17.729
760.49	17.713
760.67	17.739
760.85	17.773
761.03	17.726
761.21	17.734
761.39	17.738
761.57	17.767
761.75	17.794
761.93	17.817
762.11	17.808
762.29	17.819
762.47	17.898
762.65	17.869
762.83	17.836
763.01	17.892
763.19	17.893
763.37	17.912
763.55	17.984
763.73	18.046
763.91	18.042
764.09	18.037
764.27	18.046
764.45	17.984
764.63	18.013
764.81	18.028
764.99	18.045
765.16	18.035
765.34	18.027
765.52	17.996
765.70	17.959
765.88	17.945
766.06	17.934
766.24	17.935
766.42	17.940
766.60	17.977
766.78	17.976
766.96	17.992
767.14	18.022
767.32	18.052
767.50	18.030
767.68	18.057
767.86	18.073
768.03	18.121
768.21	18.134
768.39	18.182
768.57	18.115
768.75	18.189
768.93	18.193
769.11	18.189
769.29	18.176
769.47	18.224
769.65	18.236
769.83	18.249
770.01	18.335
770.19	18.344
770.36	18.381
770.54	18.438
770.72	18.376
770.90	18.347
771.08	18.383
771.26	18.365
771.44	18.320
771.62	18.340
771.80	18.377
771.98	18.314
772.15	18.396
772.33	18.392
772.51	18.406
772.69	18.430
772.87	18.528
773.05	18.471
773.23	18.518
773.41	18.606
773.58	18.598
773.76	18.654
773.94	18.571
774.12	18.453
774.30	18.492
774.48	18.487
774.66	18.492
774.84	18.386
775.01	18.469
775.19	18.475
775.37	18.524
775.55	18.514
775.73	18.477
775.91	18.555
776.09	18.662
776.26	18.655
776.44	18.648
776.62	18.708
776.80	18.682
776.98	18.751
777.16	18.758
777.34	18.726
777.51	18.743
777.69	18.734
777.87	18.725
778.05	18.753
778.23	18.778
778.41	18.805
778.58	18.743
778.76	18.863
778.94	18.876
779.12	18.966
779.30	18.945
779.48	18.998
779.65	19.018
779.83	19.074
780.01	19.056
780.19	19.053
780.37	19.075
780.55	19.130
780.72	19.185
780.90	19.142
781.08	19.135
781.26	19.201
781.44	19.230
781.61	19.246
781.79	19.299
781.97	19.331
782.15	19.393
782.33	19.386
782.50	19.387
782.68	19.360
782.86	19.323
783.04	19.251
783.22	19.251
783.39	19.235
783.57	19.245
783.75	19.222
783.93	19.226
784.11	19.130
784.28	18.904
784.46	18.990
784.64	18.991
784.82	19.057
784.99	19.100
785.17	19.086
785.35	19.099
785.53	19.119
785.71	19.169
785.88	19.161
786.06	19.257
786.24	19.634
786.42	19.599
786.59	19.619
786.77	19.628
786.95	19.642
787.13	19.647
787.30	19.693
787.48	19.699
787.66	19.713
787.84	19.676
788.01	19.675
788.19	19.626
788.37	19.640
788.55	19.689
788.72	19.713
788.90	19.743
789.08	19.802
789.26	19.758
789.43	19.792
789.61	19.834
789.79	19.866
789.97	19.878
790.14	19.880
790.32	19.908
790.50	19.904
790.68	19.896
790.85	19.883
791.03	19.913
791.21	19.930
791.38	19.887
791.56	19.796
791.74	19.856
791.92	19.876
792.09	19.842
792.27	19.826
792.45	19.803
792.62	19.781
792.80	19.796
792.98	19.669
793.16	19.740
793.33	19.813
793.51	19.899
793.69	19.846
793.86	19.789
794.04	19.825
794.22	19.789
794.39	19.876
794.57	19.939
794.75	20.056
794.93	20.173
795.10	20.125
795.28	20.125
795.46	20.135
795.63	20.238
795.81	20.285
795.99	20.282
796.16	20.372
796.34	20.421
796.52	20.443
796.69	20.407
796.87	20.434
797.05	20.581
797.22	20.648
797.40	20.723
797.58	20.678
797.75	20.717
797.93	20.807
798.11	20.867
798.28	20.781
798.46	20.759
798.64	20.743
798.81	20.756
798.99	20.649
799.17	20.624
799.34	20.454
799.52	20.455
799.70	20.451
799.87	20.445
800.05	20.337
800.22	20.307
800.40	20.322
800.58	20.272
800.75	20.262
800.93	20.322
801.11	20.297
801.28	20.508
801.46	20.512
801.63	20.621
801.81	20.629
801.99	20.746
802.16	20.800
802.34	20.845
802.52	20.919
802.69	20.975
802.87	21.034
803.04	21.038
803.22	21.041
803.40	21.139
803.57	21.076
803.75	21.035
803.93	20.970
804.10	21.004
804.28	21.003
804.45	21.006
804.63	20.998
804.81	20.994
804.98	21.102
805.16	21.039
805.33	21.023
805.51	21.071
805.68	21.181
805.86	21.270
806.04	21.224
806.21	21.307
806.39	21.388
806.56	21.284
806.74	21.275
806.92	21.299
807.09	21.285
807.27	21.319
807.44	21.218
807.62	21.157
807.79	21.245
807.97	21.359
808.15	21.200
808.32	21.214
808.50	21.269
808.67	21.230
808.85	21.140
809.02	21.155
809.20	21.045
809.38	21.200
809.55	21.167
809.73	21.046
809.90	21.061
810.08	21.195
810.25	21.071
810.43	21.145
810.60	21.151
810.78	21.268
810.95	21.260
811.13	21.490
811.31	21.412
811.48	21.505
811.66	21.527
811.83	21.538
812.01	21.622
812.18	21.707
812.36	21.704
812.53	21.627
812.71	21.667
812.88	21.646
813.06	21.444
813.23	21.462
813.41	21.513
813.58	21.568
813.76	21.575
813.93	21.487
814.11	21.431
814.28	21.433
814.46	21.624
814.63	21.471
814.81	21.510
814.98	21.578
815.16	21.479
815.33	21.358
815.51	21.380
815.68	21.399
815.86	21.397
816.03	21.478
816.21	21.514
816.38	21.416
816.56	21.456
816.73	21.576
816.91	21.689
817.08	21.892
817.26	21.970
817.43	22.002
817.61	21.961
817.78	21.990
817.96	21.869
818.13	21.863
818.31	21.941
818.48	21.937
818.66	21.954
818.83	21.819
819.01	21.673
819.18	21.732
819.36	21.770
819.53	21.707
819.70	21.670
819.88	21.880
820.05	21.936
820.23	21.999
820.40	22.058
820.58	22.035
820.75	22.137
820.93	22.251
821.10	22.272
821.28	22.316
821.45	22.381
821.62	22.539
821.80	22.551
821.97	22.668
822.15	22.734
822.32	22.845
822.50	23.031
822.67	23.251
822.84	23.330
823.02	23.321
823.19	23.194
823.37	23.052
823.54	22.904
823.72	22.739
823.89	22.606
824.06	22.520
824.24	22.456
824.41	22.373
824.59	22.271
824.76	22.183
824.94	22.084
825.11	22.013
825.28	21.961
825.46	21.922
825.63	21.951
825.81	21.986
825.98	22.010
826.15	22.026
826.33	22.063
826.50	22.107
826.68	22.139
826.85	22.203
827.02	22.250
827.20	22.341
827.37	22.468
827.54	22.620
827.72	22.768
827.89	22.894
828.07	23.001
828.24	23.045
828.41	23.030
828.59	22.963
828.76	22.927
828.94	22.880
829.11	22.807
829.28	22.734
829.46	22.660
829.63	22.570
829.80	22.510
829.98	22.399
830.15	22.320
830.32	22.292
830.50	22.338
830.67	22.371
830.85	22.426
831.02	22.521
831.19	22.581
831.37	22.614
831.54	22.707
831.71	22.725
831.89	22.835
832.06	22.937
832.23	22.923
832.41	22.925
832.58	22.837
832.75	22.933
832.93	22.875
833.10	22.906
833.27	23.023
833.45	23.091
833.62	23.157
833.79	23.192
833.97	23.257
834.14	23.442
834.31	23.563
834.49	23.731
834.66	23.698
834.83	23.752
835.01	23.720
835.18	23.629
835.35	23.522
835.52	23.440
835.70	23.389
835.87	23.331
836.04	23.280
836.22	23.186
836.39	23.076
836.56	23.020
836.74	22.959
836.91	22.914
837.08	22.868
837.25	22.910
837.43	22.956
837.60	22.977
837.77	22.995
837.95	23.008
838.12	22.987
838.29	22.982
838.46	22.998
838.64	23.016
838.81	22.955
838.98	23.022
839.16	23.120
839.33	23.152
839.50	23.099
839.67	23.174
839.85	23.079
840.02	23.338
840.19	23.347
840.36	23.585
840.54	23.730
840.71	23.896
840.88	24.056
841.06	23.935
841.23	23.970
841.40	24.028
841.57	23.938
841.75	23.996
841.92	23.905
842.09	23.881
842.26	23.670
842.44	23.654
842.61	23.600
842.78	23.609
842.95	23.681
843.12	23.568
843.30	23.466
843.47	23.629
843.64	23.617
843.81	23.753
843.99	23.860
844.16	24.032
844.33	23.905
844.50	23.993
844.68	23.982
844.85	23.802
845.02	23.979
845.19	24.229
845.36	24.024
845.54	24.073
845.71	23.954
845.88	24.067
846.05	24.199
846.22	24.257
846.40	24.414
846.57	24.282
846.74	24.329
846.91	24.247
847.08	24.230
847.26	24.287
847.43	24.313
847.60	24.001
847.77	24.042
847.94	23.717
848.12	23.960
848.29	23.657
848.46	23.767
848.63	24.008
848.80	24.100
848.98	24.090
849.15	24.304
849.32	24.155
849.49	24.299
849.66	24.209
849.83	24.322
850.01	24.247
850.18	24.199
850.35	23.978
850.52	23.827
850.69	23.434
850.86	23.302
851.04	22.978
851.21	23.275
851.38	23.402
851.55	23.269
851.72	23.137
851.89	23.184
852.06	23.601
852.24	23.609
852.41	24.009
852.58	24.304
852.75	24.642
852.92	24.757
853.09	24.873
853.26	24.904
853.44	25.288
853.61	25.565
853.78	25.305
853.95	25.144
854.12	24.985
854.29	24.816
854.46	24.940
854.64	24.642
854.81	24.834
854.98	24.633
855.15	24.502
855.32	24.264
855.49	24.431
855.66	24.439
855.83	24.392
856.00	24.749
856.18	24.994
856.35	24.735
856.52	24.880
856.69	24.696
856.86	24.691
857.03	24.723
857.20	24.989
857.37	25.002
857.54	25.264
857.71	25.370
857.89	25.127
858.06	24.782
858.23	24.864
858.40	24.506
858.57	24.459
858.74	23.887
858.91	23.788
859.08	23.686
859.25	23.353
859.42	23.138
859.59	23.219
859.76	23.335
859.94	23.229
860.11	23.234
860.28	23.851
860.45	23.735
860.62	24.093
860.79	24.304
860.96	24.220
861.13	24.026
861.30	23.959
861.47	23.627
861.64	23.740
861.81	23.647
861.98	23.515
862.15	23.422
862.32	23.728
862.49	23.891
862.66	24.105
862.83	24.032
863.01	24.620
863.18	24.711
863.35	24.904
863.52	25.114
863.69	25.105
863.86	25.201
864.03	25.012
864.20	25.144
864.37	25.225
864.54	25.409
864.71	25.658
864.88	25.414
865.05	25.653
865.22	25.597
865.39	25.654
865.56	25.822
865.73	26.176
865.90	26.329
866.07	26.272
866.24	26.191
866.41	25.944
866.58	25.760
866.75	25.599
866.92	25.366
867.09	25.232
867.26	24.972
867.43	24.929
867.60	24.803
867.77	24.723
867.94	24.588
868.11	24.867
868.28	24.998
868.45	25.160
868.62	25.584
868.79	25.684
868.96	25.864
869.13	25.857
869.30	26.094
869.47	25.985
869.64	26.014
869.81	25.954
869.98	25.830
870.15	25.880
870.32	25.915
870.49	25.277
870.66	25.536
870.83	25.616
871.00	26.124
871.16	26.029
871.33	25.993
871.50	25.939
871.67	26.039
871.84	25.880
872.01	25.809
872.18	25.764
872.35	26.485
872.52	26.434
872.69	26.152
872.86	25.853
873.03	26.088
873.20	26.401
873.37	26.303
873.54	26.087
873.71	25.840
873.88	25.750
874.05	25.716
874.21	25.335
874.38	24.983
874.55	25.263
874.72	25.068
874.89	24.673
875.06	24.458
875.23	25.037
875.40	25.280
875.57	25.603
875.74	25.805
875.91	25.963
876.08	26.112
876.24	26.298
876.41	26.063
876.58	26.443
876.75	26.532
876.92	26.518
877.09	26.111
877.26	26.147
877.43	26.191
877.60	25.969
877.77	25.732
877.93	25.745
878.10	26.080
878.27	26.292
878.44	26.120
878.61	26.402
878.78	26.347
878.95	26.336
879.12	26.314
879.28	26.334
879.45	26.524
879.62	26.672
879.79	26.654
879.96	26.715
880.13	26.692
880.30	26.802
880.47	26.681
880.63	26.809
880.80	26.825
880.97	26.957
881.14	27.056
881.31	27.022
881.48	26.973
881.65	27.245
881.81	27.439
881.98	27.635
882.15	27.804
882.32	27.963
882.49	27.963
882.66	27.959
882.82	27.801
882.99	27.637
883.16	27.507
883.33	27.420
883.50	27.284
883.67	27.155
883.83	27.042
884.00	26.924
884.17	26.775
884.34	26.663
884.51	26.529
884.68	26.436
884.84	26.370
885.01	26.318
885.18	26.252
885.35	26.205
885.52	26.150
885.68	26.150
885.85	26.092
886.02	25.990
886.19	25.808
886.36	25.953
886.53	26.613
886.69	25.894
>>>>>End Spectral Data<<<<<
