OOIBase32 Version 2.0.6.5 Data File
++++++++++++++++++++++++++++++++++++
Date: 03-24-2011, 10:55:35
User: Valued Ocean Optics Customer
Spectrometer Serial Number: USB4C01507
Spectrometer Channel: Master
Integration Time (msec): 46
Spectra Averaged: 30
Boxcar Smoothing: 5
Correct for Electrical Dark: Enabled
Time Normalized: Disabled
Dual-beam Reference: Disabled
Reference Channel: Master
Temperature: Not acquired
Spectrometer Type: S4000
ADC Type: USB4000
Number of Pixels in File: 3648
Graph Title: 
>>>>>Begin Spectral Data<<<<<
179.17	1064.652
179.39	3175.539
179.60	133.854
179.82	-44.439
180.03	294.362
180.24	699.336
180.46	31.048
180.67	-144.753
180.89	-130.323
181.10	-132.556
181.31	147.376
181.53	-12.013
181.74	-76.666
181.96	453.109
182.17	33.091
182.39	34.127
182.60	80.702
182.81	75.440
183.03	316.830
183.24	-465.072
183.46	44.838
183.67	45.797
183.88	35.854
184.10	36.843
184.31	19.021
184.53	24.261
184.74	19.910
184.96	23.911
185.17	17.092
185.38	14.776
185.60	18.882
185.81	21.407
186.03	18.171
186.24	21.554
186.45	18.971
186.67	21.347
186.88	23.845
187.10	25.131
187.31	12.527
187.52	13.168
187.74	9.550
187.95	4.537
188.17	-8.510
188.38	-7.918
188.59	-13.532
188.81	-17.967
189.02	-6.667
189.24	-9.050
189.45	-4.058
189.66	-0.557
189.88	-8.104
190.09	-3.189
190.30	2.501
190.52	19.293
190.73	10.247
190.95	17.019
191.16	21.212
191.37	10.884
191.59	6.465
191.80	6.524
192.02	11.434
192.23	20.106
192.44	16.261
192.66	6.125
192.87	-7.540
193.08	1.229
193.30	-1.204
193.51	4.580
193.73	8.500
193.94	17.683
194.15	12.034
194.37	8.771
194.58	11.023
194.79	7.062
195.01	8.663
195.22	10.055
195.44	5.133
195.65	7.044
195.86	-0.914
196.08	-5.142
196.29	-7.056
196.50	-5.081
196.72	0.143
196.93	-0.105
197.14	3.706
197.36	7.776
197.57	1.396
197.79	3.740
198.00	-1.173
198.21	6.341
198.43	10.864
198.64	7.831
198.85	4.606
199.07	1.247
199.28	5.133
199.49	2.584
199.71	2.347
199.92	14.825
200.13	14.851
200.35	16.938
200.56	3.251
200.78	2.557
200.99	0.886
201.20	0.924
201.42	0.871
201.63	-7.540
201.84	-3.992
202.06	-5.115
202.27	-6.124
202.48	-8.755
202.70	-13.030
202.91	-4.539
203.12	-8.097
203.34	-7.616
203.55	-4.017
203.76	-4.421
203.98	-1.648
204.19	-2.332
204.40	-3.231
204.62	-1.800
204.83	-0.392
205.04	3.859
205.26	-1.385
205.47	4.796
205.68	7.972
205.90	6.211
206.11	7.275
206.32	6.517
206.54	4.105
206.75	4.747
206.96	1.737
207.18	2.529
207.39	2.059
207.60	11.043
207.82	5.781
208.03	3.560
208.24	2.959
208.45	7.513
208.67	6.066
208.88	7.040
209.09	6.631
209.31	5.247
209.52	0.802
209.73	3.121
209.95	1.850
210.16	4.916
210.37	6.948
210.59	8.999
210.80	6.022
211.01	9.005
211.23	11.151
211.44	12.572
211.65	11.836
211.86	15.511
212.08	13.003
212.29	12.477
212.50	10.143
212.72	6.586
212.93	3.836
213.14	5.976
213.36	4.747
213.57	4.183
213.78	4.589
213.99	8.553
214.21	9.562
214.42	11.306
214.63	11.207
214.85	10.676
215.06	13.089
215.27	15.929
215.49	10.637
215.70	11.142
215.91	9.336
216.12	5.598
216.34	5.159
216.55	3.178
216.76	1.809
216.98	-1.531
217.19	1.025
217.40	2.530
217.61	3.096
217.83	7.879
218.04	5.937
218.25	5.794
218.47	7.281
218.68	5.678
218.89	5.247
219.10	6.480
219.32	6.056
219.53	5.969
219.74	5.899
219.95	5.393
220.17	3.456
220.38	4.492
220.59	3.950
220.81	5.150
221.02	5.509
221.23	5.537
221.44	3.742
221.66	5.406
221.87	5.055
222.08	6.051
222.29	5.783
222.51	6.982
222.72	6.194
222.93	7.308
223.14	6.753
223.36	6.423
223.57	6.482
223.78	6.890
223.99	6.057
224.21	5.727
224.42	3.608
224.63	3.142
224.84	2.105
225.06	2.795
225.27	3.081
225.48	2.673
225.69	3.102
225.91	3.378
226.12	2.962
226.33	3.342
226.54	3.376
226.76	3.633
226.97	3.801
227.18	3.737
227.39	3.674
227.61	3.703
227.82	3.770
228.03	3.675
228.24	3.611
228.46	3.808
228.67	3.824
228.88	3.869
229.09	3.809
229.31	3.720
229.52	3.768
229.73	3.890
229.94	3.735
230.16	3.722
230.37	3.816
230.58	3.828
230.79	3.720
231.00	3.969
231.22	4.088
231.43	4.155
231.64	4.346
231.85	4.514
232.07	4.085
232.28	4.365
232.49	4.009
232.70	3.716
232.91	4.049
233.13	4.235
233.34	4.018
233.55	4.076
233.76	4.326
233.98	4.547
234.19	4.321
234.40	4.259
234.61	4.117
234.82	4.652
235.04	4.529
235.25	4.506
235.46	4.339
235.67	4.201
235.88	4.021
236.10	3.747
236.31	3.589
236.52	3.752
236.73	4.313
236.94	4.268
237.16	3.626
237.37	4.005
237.58	3.574
237.79	3.754
238.01	3.403
238.22	3.420
238.43	3.467
238.64	3.359
238.85	3.247
239.06	3.107
239.28	2.973
239.49	3.235
239.70	3.107
239.91	3.140
240.12	2.929
240.34	3.383
240.55	3.407
240.76	3.584
240.97	3.648
241.18	3.639
241.40	3.517
241.61	3.525
241.82	3.512
242.03	3.617
242.24	3.494
242.45	3.589
242.67	3.363
242.88	3.331
243.09	3.058
243.30	2.981
243.51	3.069
243.73	3.188
243.94	3.182
244.15	3.071
244.36	3.180
244.57	3.648
244.78	3.492
245.00	3.638
245.21	3.541
245.42	3.744
245.63	3.716
245.84	3.687
246.05	3.684
246.27	3.696
246.48	3.715
246.69	3.599
246.90	3.576
247.11	3.555
247.32	3.529
247.54	3.549
247.75	3.482
247.96	3.495
248.17	3.460
248.38	3.383
248.59	3.373
248.81	3.357
249.02	3.342
249.23	3.162
249.44	3.128
249.65	3.120
249.86	2.890
250.07	3.068
250.29	2.829
250.50	2.632
250.71	2.711
250.92	2.686
251.13	2.640
251.34	2.825
251.55	2.833
251.77	2.936
251.98	2.970
252.19	3.081
252.40	2.938
252.61	2.876
252.82	2.831
253.03	2.720
253.25	2.545
253.46	2.365
253.67	2.240
253.88	2.137
254.09	2.119
254.30	1.985
254.51	1.940
254.73	1.789
254.94	2.037
255.15	2.277
255.36	2.385
255.57	2.573
255.78	2.852
255.99	2.627
256.20	2.736
256.42	2.727
256.63	2.572
256.84	2.449
257.05	2.569
257.26	2.597
257.47	2.535
257.68	2.563
257.89	2.528
258.10	2.548
258.32	2.686
258.53	2.682
258.74	2.747
258.95	2.858
259.16	2.937
259.37	2.971
259.58	2.912
259.79	2.991
260.00	2.994
260.22	3.013
260.43	3.050
260.64	3.059
260.85	3.135
261.06	3.154
261.27	3.104
261.48	3.036
261.69	2.930
261.90	3.011
262.12	2.821
262.33	2.836
262.54	2.856
262.75	2.797
262.96	2.730
263.17	2.665
263.38	2.665
263.59	2.626
263.80	2.740
264.01	2.796
264.22	2.655
264.44	2.664
264.65	2.529
264.86	2.535
265.07	2.285
265.28	2.245
265.49	2.286
265.70	2.223
265.91	2.280
266.12	2.370
266.33	2.359
266.54	2.430
266.75	2.504
266.97	2.575
267.18	2.564
267.39	2.744
267.60	2.707
267.81	2.649
268.02	2.551
268.23	2.608
268.44	2.449
268.65	2.525
268.86	2.603
269.07	2.668
269.28	2.562
269.49	2.552
269.70	2.409
269.92	2.570
270.13	2.559
270.34	2.662
270.55	2.545
270.76	2.530
270.97	2.511
271.18	2.421
271.39	2.342
271.60	2.420
271.81	2.452
272.02	2.508
272.23	2.558
272.44	2.575
272.65	2.594
272.86	2.626
273.07	2.623
273.28	2.617
273.49	2.631
273.71	2.602
273.92	2.701
274.13	2.604
274.34	2.638
274.55	2.579
274.76	2.548
274.97	2.498
275.18	2.402
275.39	2.434
275.60	2.423
275.81	2.554
276.02	2.554
276.23	2.465
276.44	2.504
276.65	2.575
276.86	2.574
277.07	2.612
277.28	2.708
277.49	2.876
277.70	2.901
277.91	2.885
278.12	2.719
278.33	2.731
278.54	2.686
278.75	2.670
278.96	2.502
279.17	2.431
279.39	2.440
279.60	2.312
279.81	2.273
280.02	2.265
280.23	2.220
280.44	2.208
280.65	2.223
280.86	2.257
281.07	2.264
281.28	2.378
281.49	2.402
281.70	2.407
281.91	2.412
282.12	2.401
282.33	2.428
282.54	2.456
282.75	2.492
282.96	2.503
283.17	2.498
283.38	2.542
283.59	2.464
283.80	2.365
284.01	2.312
284.22	2.371
284.43	2.318
284.64	2.303
284.85	2.316
285.06	2.360
285.27	2.379
285.48	2.357
285.69	2.307
285.90	2.367
286.11	2.446
286.32	2.428
286.53	2.396
286.74	2.505
286.95	2.443
287.16	2.512
287.37	2.455
287.58	2.348
287.79	2.301
288.00	2.327
288.21	2.229
288.42	2.156
288.63	2.204
288.84	2.227
289.05	2.174
289.26	2.288
289.47	2.166
289.68	2.159
289.89	2.225
290.10	2.195
290.31	2.136
290.51	2.133
290.72	2.168
290.93	2.199
291.14	2.110
291.35	2.042
291.56	1.914
291.77	1.901
291.98	1.880
292.19	1.964
292.40	2.025
292.61	2.037
292.82	2.066
293.03	2.156
293.24	2.109
293.45	2.200
293.66	2.279
293.87	2.380
294.08	2.346
294.29	2.414
294.50	2.286
294.71	2.250
294.92	2.318
295.13	2.291
295.34	2.191
295.55	2.194
295.76	2.180
295.96	2.175
296.17	2.153
296.38	2.238
296.59	2.213
296.80	2.202
297.01	2.272
297.22	2.301
297.43	2.338
297.64	2.343
297.85	2.340
298.06	2.323
298.27	2.334
298.48	2.368
298.69	2.334
298.90	2.366
299.11	2.367
299.32	2.320
299.53	2.268
299.73	2.243
299.94	2.291
300.15	2.319
300.36	2.354
300.57	2.303
300.78	2.247
300.99	2.234
301.20	2.139
301.41	2.222
301.62	2.234
301.83	2.237
302.04	2.210
302.25	2.183
302.45	2.156
302.66	2.099
302.87	2.124
303.08	2.094
303.29	2.072
303.50	2.151
303.71	2.162
303.92	2.105
304.13	2.063
304.34	2.085
304.55	2.101
304.76	2.138
304.96	2.159
305.17	2.140
305.38	2.198
305.59	2.250
305.80	2.277
306.01	2.265
306.22	2.262
306.43	2.283
306.64	2.213
306.85	2.140
307.06	2.106
307.26	2.095
307.47	2.010
307.68	2.042
307.89	2.036
308.10	1.958
308.31	1.918
308.52	1.972
308.73	1.998
308.94	2.083
309.14	2.114
309.35	2.136
309.56	2.133
309.77	2.224
309.98	2.203
310.19	2.225
310.40	2.242
310.61	2.226
310.82	2.221
311.02	2.234
311.23	2.176
311.44	2.154
311.65	2.125
311.86	2.137
312.07	2.113
312.28	2.050
312.49	1.978
312.69	1.947
312.90	1.925
313.11	1.895
313.32	1.853
313.53	1.890
313.74	1.864
313.95	1.835
314.16	1.810
314.36	1.831
314.57	1.896
314.78	1.942
314.99	1.971
315.20	2.001
315.41	2.014
315.62	1.956
315.82	1.955
316.03	1.981
316.24	2.010
316.45	2.094
316.66	2.044
316.87	2.033
317.08	2.020
317.28	2.055
317.49	1.987
317.70	1.979
317.91	1.997
318.12	2.019
318.33	2.048
318.54	2.045
318.74	1.985
318.95	2.019
319.16	2.048
319.37	2.038
319.58	1.990
319.79	2.042
319.99	2.049
320.20	2.067
320.41	2.042
320.62	2.022
320.83	2.022
321.04	2.040
321.24	1.978
321.45	1.998
321.66	2.033
321.87	2.057
322.08	2.056
322.29	2.036
322.49	2.052
322.70	2.073
322.91	2.086
323.12	2.129
323.33	2.099
323.54	2.092
323.74	2.040
323.95	1.990
324.16	1.964
324.37	1.989
324.58	1.990
324.79	1.962
324.99	1.879
325.20	1.884
325.41	1.861
325.62	1.885
325.83	1.897
326.03	1.848
326.24	1.866
326.45	1.897
326.66	1.832
326.87	1.844
327.07	1.874
327.28	1.925
327.49	1.898
327.70	1.885
327.91	1.878
328.11	1.863
328.32	1.949
328.53	2.055
328.74	2.003
328.95	2.058
329.15	2.093
329.36	2.108
329.57	2.091
329.78	2.113
329.99	2.063
330.19	1.984
330.40	2.011
330.61	1.954
330.82	1.838
331.03	1.828
331.23	1.841
331.44	1.851
331.65	1.777
331.86	1.837
332.07	1.814
332.27	1.842
332.48	1.896
332.69	1.904
332.90	1.930
333.10	1.967
333.31	1.979
333.52	1.975
333.73	1.938
333.94	1.955
334.14	1.925
334.35	1.937
334.56	1.955
334.77	1.952
334.97	1.947
335.18	1.894
335.39	1.855
335.60	1.866
335.80	1.809
336.01	1.815
336.22	1.779
336.43	1.759
336.64	1.757
336.84	1.786
337.05	1.774
337.26	1.762
337.47	1.789
337.67	1.805
337.88	1.785
338.09	1.807
338.30	1.795
338.50	1.880
338.71	1.909
338.92	1.932
339.13	1.962
339.33	1.962
339.54	1.957
339.75	1.950
339.96	1.923
340.16	1.924
340.37	1.925
340.58	1.899
340.79	1.875
340.99	1.839
341.20	1.795
341.41	1.750
341.62	1.739
341.82	1.770
342.03	1.713
342.24	1.707
342.44	1.776
342.65	1.771
342.86	1.733
343.07	1.709
343.27	1.769
343.48	1.772
343.69	1.730
343.90	1.793
344.10	1.768
344.31	1.807
344.52	1.883
344.72	1.839
344.93	1.824
345.14	1.850
345.35	1.828
345.55	1.826
345.76	1.806
345.97	1.826
346.18	1.753
346.38	1.786
346.59	1.753
346.80	1.739
347.00	1.728
347.21	1.769
347.42	1.845
347.62	1.898
347.83	1.845
348.04	1.841
348.25	1.791
348.45	1.824
348.66	1.809
348.87	1.846
349.07	1.795
349.28	1.826
349.49	1.788
349.70	1.793
349.90	1.783
350.11	1.803
350.32	1.794
350.52	1.874
350.73	1.885
350.94	1.892
351.14	1.897
351.35	1.960
351.56	1.934
351.76	1.969
351.97	1.896
352.18	1.921
352.39	1.902
352.59	1.948
352.80	1.891
353.01	1.884
353.21	1.859
353.42	1.831
353.63	1.742
353.83	1.717
354.04	1.678
354.25	1.700
354.45	1.660
354.66	1.679
354.87	1.620
355.07	1.627
355.28	1.642
355.49	1.647
355.69	1.681
355.90	1.728
356.11	1.775
356.31	1.830
356.52	1.827
356.73	1.851
356.93	1.840
357.14	1.895
357.35	1.895
357.55	1.877
357.76	1.831
357.97	1.797
358.17	1.820
358.38	1.798
358.59	1.780
358.79	1.764
359.00	1.747
359.21	1.730
359.41	1.699
359.62	1.734
359.83	1.719
360.03	1.763
360.24	1.825
360.44	1.781
360.65	1.758
360.86	1.754
361.06	1.785
361.27	1.764
361.48	1.781
361.68	1.812
361.89	1.788
362.10	1.805
362.30	1.801
362.51	1.769
362.72	1.801
362.92	1.815
363.13	1.778
363.33	1.754
363.54	1.770
363.75	1.776
363.95	1.787
364.16	1.782
364.37	1.802
364.57	1.820
364.78	1.812
364.98	1.781
365.19	1.779
365.40	1.821
365.60	1.800
365.81	1.826
366.02	1.849
366.22	1.807
366.43	1.826
366.63	1.783
366.84	1.746
367.05	1.742
367.25	1.711
367.46	1.700
367.66	1.707
367.87	1.746
368.08	1.706
368.28	1.700
368.49	1.701
368.69	1.662
368.90	1.663
369.11	1.690
369.31	1.695
369.52	1.764
369.72	1.767
369.93	1.734
370.14	1.717
370.34	1.707
370.55	1.678
370.75	1.689
370.96	1.687
371.17	1.737
371.37	1.739
371.58	1.764
371.78	1.745
371.99	1.765
372.20	1.772
372.40	1.740
372.61	1.765
372.81	1.775
373.02	1.775
373.23	1.776
373.43	1.757
373.64	1.724
373.84	1.709
374.05	1.728
374.25	1.701
374.46	1.677
374.67	1.719
374.87	1.732
375.08	1.713
375.28	1.710
375.49	1.720
375.69	1.725
375.90	1.743
376.11	1.733
376.31	1.720
376.52	1.722
376.72	1.729
376.93	1.718
377.13	1.716
377.34	1.725
377.55	1.747
377.75	1.775
377.96	1.736
378.16	1.752
378.37	1.784
378.57	1.775
378.78	1.780
378.98	1.789
379.19	1.795
379.40	1.772
379.60	1.749
379.81	1.727
380.01	1.689
380.22	1.709
380.42	1.693
380.63	1.678
380.83	1.671
381.04	1.692
381.24	1.698
381.45	1.686
381.66	1.710
381.86	1.738
382.07	1.753
382.27	1.784
382.48	1.766
382.68	1.769
382.89	1.762
383.09	1.783
383.30	1.764
383.50	1.767
383.71	1.755
383.91	1.752
384.12	1.739
384.32	1.728
384.53	1.713
384.73	1.735
384.94	1.727
385.15	1.730
385.35	1.730
385.56	1.721
385.76	1.697
385.97	1.711
386.17	1.700
386.38	1.710
386.58	1.707
386.79	1.738
386.99	1.733
387.20	1.732
387.40	1.710
387.61	1.723
387.81	1.719
388.02	1.730
388.22	1.731
388.43	1.743
388.63	1.741
388.84	1.746
389.04	1.730
389.25	1.723
389.45	1.731
389.66	1.771
389.86	1.752
390.07	1.782
390.27	1.782
390.48	1.787
390.68	1.784
390.89	1.809
391.09	1.823
391.30	1.829
391.50	1.846
391.71	1.865
391.91	1.823
392.12	1.828
392.32	1.824
392.53	1.847
392.73	1.844
392.94	1.848
393.14	1.838
393.35	1.831
393.55	1.814
393.75	1.812
393.96	1.812
394.16	1.823
394.37	1.810
394.57	1.825
394.78	1.824
394.98	1.818
395.19	1.782
395.39	1.787
395.60	1.779
395.80	1.787
396.01	1.766
396.21	1.771
396.42	1.761
396.62	1.776
396.83	1.724
397.03	1.727
397.23	1.748
397.44	1.780
397.64	1.769
397.85	1.791
398.05	1.801
398.26	1.828
398.46	1.822
398.67	1.844
398.87	1.834
399.08	1.869
399.28	1.858
399.48	1.852
399.69	1.833
399.89	1.836
400.10	1.819
400.30	1.820
400.51	1.800
400.71	1.792
400.92	1.786
401.12	1.808
401.32	1.772
401.53	1.767
401.73	1.754
401.94	1.780
402.14	1.785
402.35	1.800
402.55	1.790
402.75	1.802
402.96	1.801
403.16	1.809
403.37	1.803
403.57	1.841
403.78	1.859
403.98	1.868
404.18	1.856
404.39	1.830
404.59	1.825
404.80	1.832
405.00	1.831
405.21	1.844
405.41	1.841
405.61	1.825
405.82	1.819
406.02	1.826
406.23	1.823
406.43	1.838
406.63	1.858
406.84	1.860
407.04	1.864
407.25	1.873
407.45	1.859
407.65	1.855
407.86	1.856
408.06	1.832
408.27	1.814
408.47	1.838
408.67	1.821
408.88	1.828
409.08	1.807
409.29	1.807
409.49	1.799
409.69	1.804
409.90	1.803
410.10	1.820
410.31	1.848
410.51	1.864
410.71	1.838
410.92	1.836
411.12	1.825
411.33	1.854
411.53	1.842
411.73	1.844
411.94	1.850
412.14	1.857
412.34	1.859
412.55	1.861
412.75	1.848
412.96	1.854
413.16	1.854
413.36	1.854
413.57	1.851
413.77	1.854
413.97	1.871
414.18	1.866
414.38	1.865
414.59	1.856
414.79	1.853
414.99	1.858
415.20	1.877
415.40	1.906
415.60	1.899
415.81	1.887
416.01	1.895
416.21	1.878
416.42	1.885
416.62	1.903
416.83	1.897
417.03	1.888
417.23	1.867
417.44	1.863
417.64	1.844
417.84	1.851
418.05	1.864
418.25	1.862
418.45	1.866
418.66	1.863
418.86	1.837
419.06	1.853
419.27	1.860
419.47	1.876
419.67	1.877
419.88	1.878
420.08	1.873
420.28	1.862
420.49	1.860
420.69	1.849
420.89	1.852
421.10	1.864
421.30	1.845
421.50	1.844
421.71	1.843
421.91	1.836
422.11	1.833
422.32	1.851
422.52	1.856
422.72	1.883
422.93	1.897
423.13	1.906
423.33	1.908
423.54	1.923
423.74	1.913
423.94	1.909
424.15	1.916
424.35	1.932
424.55	1.927
424.76	1.931
424.96	1.918
425.16	1.924
425.36	1.918
425.57	1.923
425.77	1.914
425.97	1.932
426.18	1.935
426.38	1.918
426.58	1.900
426.79	1.897
426.99	1.887
427.19	1.882
427.39	1.865
427.60	1.864
427.80	1.867
428.00	1.887
428.21	1.879
428.41	1.898
428.61	1.914
428.82	1.929
429.02	1.922
429.22	1.945
429.42	1.949
429.63	1.965
429.83	1.968
430.03	1.959
430.24	1.945
430.44	1.966
430.64	1.959
430.84	1.972
431.05	1.963
431.25	1.967
431.45	1.937
431.65	1.939
431.86	1.920
432.06	1.921
432.26	1.921
432.47	1.926
432.67	1.910
432.87	1.900
433.07	1.894
433.28	1.910
433.48	1.920
433.68	1.935
433.88	1.937
434.09	1.956
434.29	1.953
434.49	1.961
434.69	1.957
434.90	1.966
435.10	1.972
435.30	1.986
435.51	1.983
435.71	1.985
435.91	1.982
436.11	1.975
436.32	1.959
436.52	1.970
436.72	1.969
436.92	1.991
437.13	1.991
437.33	1.985
437.53	1.973
437.73	1.960
437.93	1.952
438.14	1.963
438.34	1.961
438.54	1.966
438.74	1.964
438.95	1.964
439.15	1.966
439.35	1.966
439.55	1.964
439.76	1.974
439.96	1.991
440.16	1.995
440.36	1.986
440.56	1.987
440.77	1.981
440.97	1.978
441.17	1.974
441.37	1.969
441.58	1.967
441.78	1.993
441.98	1.987
442.18	1.986
442.38	1.989
442.59	2.001
442.79	1.992
442.99	2.012
443.19	2.007
443.40	2.019
443.60	2.019
443.80	2.028
444.00	2.012
444.20	2.018
444.41	2.001
444.61	2.009
444.81	2.018
445.01	2.027
445.21	2.016
445.42	2.029
445.62	2.012
445.82	2.005
446.02	1.996
446.22	1.989
446.43	1.982
446.63	1.986
446.83	1.980
447.03	1.964
447.23	1.971
447.44	1.985
447.64	1.976
447.84	1.986
448.04	1.991
448.24	1.998
448.44	2.002
448.65	2.020
448.85	2.014
449.05	2.030
449.25	2.044
449.45	2.049
449.65	2.044
449.86	2.060
450.06	2.074
450.26	2.083
450.46	2.093
450.66	2.101
450.87	2.085
451.07	2.120
451.27	2.091
451.47	2.089
451.67	2.079
451.87	2.088
452.08	2.090
452.28	2.085
452.48	2.083
452.68	2.083
452.88	2.081
453.08	2.095
453.28	2.076
453.49	2.098
453.69	2.106
453.89	2.108
454.09	2.103
454.29	2.089
454.49	2.098
454.70	2.092
454.90	2.087
455.10	2.084
455.30	2.066
455.50	2.089
455.70	2.080
455.90	2.085
456.11	2.082
456.31	2.091
456.51	2.092
456.71	2.080
456.91	2.093
457.11	2.101
457.31	2.108
457.51	2.123
457.72	2.107
457.92	2.111
458.12	2.092
458.32	2.104
458.52	2.103
458.72	2.122
458.92	2.110
459.12	2.101
459.33	2.090
459.53	2.100
459.73	2.114
459.93	2.110
460.13	2.116
460.33	2.124
460.53	2.123
460.73	2.109
460.93	2.106
461.14	2.123
461.34	2.131
461.54	2.153
461.74	2.153
461.94	2.145
462.14	2.147
462.34	2.146
462.54	2.141
462.74	2.116
462.95	2.131
463.15	2.123
463.35	2.111
463.55	2.111
463.75	2.088
463.95	2.089
464.15	2.092
464.35	2.101
464.55	2.095
464.75	2.105
464.95	2.134
465.16	2.130
465.36	2.130
465.56	2.150
465.76	2.161
465.96	2.171
466.16	2.178
466.36	2.174
466.56	2.169
466.76	2.174
466.96	2.192
467.16	2.204
467.36	2.207
467.57	2.209
467.77	2.202
467.97	2.205
468.17	2.209
468.37	2.195
468.57	2.202
468.77	2.215
468.97	2.206
469.17	2.197
469.37	2.188
469.57	2.197
469.77	2.202
469.97	2.206
470.17	2.204
470.37	2.204
470.57	2.219
470.78	2.219
470.98	2.223
471.18	2.250
471.38	2.254
471.58	2.270
471.78	2.276
471.98	2.280
472.18	2.284
472.38	2.289
472.58	2.305
472.78	2.321
472.98	2.320
473.18	2.323
473.38	2.309
473.58	2.316
473.78	2.300
473.98	2.299
474.18	2.312
474.38	2.313
474.58	2.314
474.78	2.319
474.98	2.309
475.18	2.320
475.38	2.325
475.58	2.341
475.79	2.329
475.99	2.335
476.19	2.332
476.39	2.315
476.59	2.310
476.79	2.314
476.99	2.300
477.19	2.292
477.39	2.288
477.59	2.284
477.79	2.273
477.99	2.283
478.19	2.280
478.39	2.291
478.59	2.299
478.79	2.302
478.99	2.302
479.19	2.312
479.39	2.317
479.59	2.324
479.79	2.328
479.99	2.329
480.19	2.329
480.39	2.335
480.59	2.334
480.79	2.344
480.99	2.350
481.19	2.357
481.39	2.353
481.59	2.366
481.79	2.369
481.99	2.370
482.19	2.378
482.39	2.390
482.59	2.393
482.79	2.395
482.99	2.389
483.19	2.404
483.39	2.433
483.59	2.457
483.79	2.455
483.99	2.447
484.19	2.434
484.39	2.434
484.58	2.429
484.78	2.430
484.98	2.431
485.18	2.439
485.38	2.436
485.58	2.413
485.78	2.387
485.98	2.385
486.18	2.391
486.38	2.416
486.58	2.425
486.78	2.428
486.98	2.437
487.18	2.442
487.38	2.443
487.58	2.444
487.78	2.445
487.98	2.452
488.18	2.451
488.38	2.455
488.58	2.447
488.78	2.448
488.98	2.454
489.18	2.455
489.37	2.452
489.57	2.458
489.77	2.463
489.97	2.471
490.17	2.475
490.37	2.479
490.57	2.487
490.77	2.504
490.97	2.506
491.17	2.508
491.37	2.513
491.57	2.525
491.77	2.526
491.97	2.529
492.17	2.530
492.37	2.536
492.56	2.539
492.76	2.542
492.96	2.544
493.16	2.559
493.36	2.567
493.56	2.575
493.76	2.572
493.96	2.582
494.16	2.588
494.36	2.597
494.56	2.596
494.76	2.610
494.95	2.620
495.15	2.622
495.35	2.611
495.55	2.621
495.75	2.620
495.95	2.630
496.15	2.640
496.35	2.654
496.55	2.651
496.75	2.656
496.95	2.660
497.14	2.671
497.34	2.678
497.54	2.693
497.74	2.697
497.94	2.705
498.14	2.713
498.34	2.714
498.54	2.710
498.74	2.719
498.93	2.728
499.13	2.728
499.33	2.730
499.53	2.737
499.73	2.738
499.93	2.743
500.13	2.749
500.33	2.755
500.53	2.754
500.72	2.766
500.92	2.768
501.12	2.774
501.32	2.777
501.52	2.775
501.72	2.777
501.92	2.780
502.12	2.778
502.31	2.779
502.51	2.779
502.71	2.789
502.91	2.790
503.11	2.797
503.31	2.803
503.51	2.813
503.70	2.822
503.90	2.838
504.10	2.846
504.30	2.862
504.50	2.868
504.70	2.880
504.90	2.889
505.09	2.902
505.29	2.903
505.49	2.909
505.69	2.912
505.89	2.921
506.09	2.902
506.29	2.909
506.48	2.915
506.68	2.924
506.88	2.927
507.08	2.927
507.28	2.933
507.48	2.946
507.67	2.948
507.87	2.950
508.07	2.952
508.27	2.972
508.47	2.970
508.67	2.972
508.86	2.979
509.06	2.977
509.26	2.982
509.46	2.990
509.66	2.988
509.85	2.996
510.05	3.013
510.25	3.017
510.45	3.029
510.65	3.037
510.85	3.034
511.04	3.040
511.24	3.053
511.44	3.069
511.64	3.062
511.84	3.078
512.03	3.084
512.23	3.087
512.43	3.088
512.63	3.085
512.83	3.100
513.02	3.113
513.22	3.114
513.42	3.121
513.62	3.121
513.82	3.134
514.01	3.142
514.21	3.150
514.41	3.156
514.61	3.166
514.81	3.171
515.00	3.162
515.20	3.170
515.40	3.184
515.60	3.177
515.80	3.180
515.99	3.178
516.19	3.170
516.39	3.170
516.59	3.175
516.78	3.181
516.98	3.196
517.18	3.202
517.38	3.201
517.58	3.198
517.77	3.211
517.97	3.217
518.17	3.224
518.37	3.235
518.56	3.246
518.76	3.257
518.96	3.262
519.16	3.259
519.36	3.271
519.55	3.279
519.75	3.298
519.95	3.305
520.15	3.309
520.34	3.324
520.54	3.336
520.74	3.337
520.94	3.341
521.13	3.353
521.33	3.364
521.53	3.365
521.73	3.369
521.92	3.363
522.12	3.377
522.32	3.393
522.52	3.398
522.71	3.403
522.91	3.417
523.11	3.420
523.31	3.425
523.50	3.425
523.70	3.438
523.90	3.438
524.09	3.448
524.29	3.451
524.49	3.461
524.69	3.465
524.88	3.466
525.08	3.466
525.28	3.475
525.48	3.475
525.67	3.490
525.87	3.486
526.07	3.498
526.26	3.501
526.46	3.506
526.66	3.506
526.86	3.509
527.05	3.522
527.25	3.531
527.45	3.536
527.64	3.543
527.84	3.546
528.04	3.553
528.24	3.561
528.43	3.571
528.63	3.574
528.83	3.576
529.02	3.575
529.22	3.572
529.42	3.572
529.62	3.574
529.81	3.576
530.01	3.574
530.21	3.575
530.40	3.576
530.60	3.571
530.80	3.576
530.99	3.584
531.19	3.590
531.39	3.602
531.58	3.612
531.78	3.623
531.98	3.637
532.18	3.658
532.37	3.671
532.57	3.684
532.77	3.693
532.96	3.694
533.16	3.700
533.36	3.711
533.55	3.717
533.75	3.722
533.95	3.729
534.14	3.730
534.34	3.737
534.54	3.748
534.73	3.752
534.93	3.761
535.13	3.771
535.32	3.773
535.52	3.780
535.72	3.789
535.91	3.794
536.11	3.796
536.31	3.802
536.50	3.807
536.70	3.811
536.90	3.820
537.09	3.830
537.29	3.837
537.48	3.850
537.68	3.851
537.88	3.855
538.07	3.862
538.27	3.872
538.47	3.887
538.66	3.891
538.86	3.891
539.06	3.896
539.25	3.912
539.45	3.923
539.65	3.939
539.84	3.976
540.04	3.989
540.23	4.005
540.43	4.009
540.63	4.017
540.82	4.023
541.02	4.033
541.22	4.034
541.41	4.030
541.61	4.020
541.80	4.017
542.00	4.003
542.20	4.000
542.39	3.999
542.59	4.003
542.79	4.003
542.98	4.008
543.18	4.007
543.37	4.015
543.57	4.020
543.77	4.042
543.96	4.048
544.16	4.067
544.35	4.080
544.55	4.092
544.75	4.103
544.94	4.112
545.14	4.121
545.33	4.138
545.53	4.144
545.73	4.148
545.92	4.147
546.12	4.160
546.31	4.161
546.51	4.168
546.71	4.176
546.90	4.179
547.10	4.180
547.29	4.180
547.49	4.189
547.69	4.203
547.88	4.215
548.08	4.221
548.27	4.224
548.47	4.236
548.66	4.244
548.86	4.251
549.06	4.261
549.25	4.280
549.45	4.297
549.64	4.304
549.84	4.298
550.03	4.316
550.23	4.326
550.43	4.339
550.62	4.340
550.82	4.356
551.01	4.372
551.21	4.377
551.40	4.382
551.60	4.397
551.80	4.401
551.99	4.417
552.19	4.414
552.38	4.426
552.58	4.425
552.77	4.437
552.97	4.443
553.16	4.437
553.36	4.444
553.56	4.456
553.75	4.443
553.95	4.448
554.14	4.451
554.34	4.465
554.53	4.481
554.73	4.507
554.92	4.515
555.12	4.521
555.31	4.531
555.51	4.553
555.70	4.555
555.90	4.569
556.10	4.580
556.29	4.587
556.49	4.580
556.68	4.591
556.88	4.580
557.07	4.587
557.27	4.601
557.46	4.610
557.66	4.606
557.85	4.611
558.05	4.624
558.24	4.623
558.44	4.643
558.63	4.647
558.83	4.640
559.02	4.661
559.22	4.663
559.41	4.673
559.61	4.675
559.80	4.687
560.00	4.685
560.19	4.693
560.39	4.698
560.58	4.699
560.78	4.721
560.97	4.728
561.17	4.732
561.36	4.734
561.56	4.724
561.75	4.737
561.95	4.736
562.14	4.757
562.34	4.759
562.53	4.776
562.73	4.780
562.92	4.773
563.12	4.779
563.31	4.768
563.51	4.790
563.70	4.803
563.90	4.810
564.09	4.815
564.29	4.831
564.48	4.837
564.68	4.842
564.87	4.854
565.07	4.854
565.26	4.868
565.45	4.879
565.65	4.871
565.84	4.874
566.04	4.870
566.23	4.880
566.43	4.885
566.62	4.892
566.82	4.895
567.01	4.898
567.21	4.917
567.40	4.915
567.60	4.933
567.79	4.936
567.98	4.945
568.18	4.971
568.37	4.982
568.57	4.975
568.76	4.981
568.96	4.987
569.15	4.995
569.35	5.015
569.54	5.021
569.73	5.019
569.93	5.038
570.12	5.036
570.32	5.039
570.51	5.040
570.71	5.060
570.90	5.069
571.09	5.081
571.29	5.088
571.48	5.096
571.68	5.104
571.87	5.111
572.07	5.118
572.26	5.131
572.45	5.132
572.65	5.147
572.84	5.146
573.04	5.149
573.23	5.154
573.43	5.166
573.62	5.165
573.81	5.184
574.01	5.186
574.20	5.179
574.40	5.182
574.59	5.181
574.78	5.174
574.98	5.185
575.17	5.187
575.37	5.184
575.56	5.182
575.75	5.182
575.95	5.188
576.14	5.194
576.34	5.204
576.53	5.210
576.72	5.219
576.92	5.235
577.11	5.236
577.31	5.255
577.50	5.267
577.69	5.282
577.89	5.293
578.08	5.284
578.28	5.287
578.47	5.296
578.66	5.305
578.86	5.322
579.05	5.337
579.24	5.358
579.44	5.363
579.63	5.381
579.83	5.377
580.02	5.391
580.21	5.402
580.41	5.435
580.60	5.458
580.79	5.468
580.99	5.474
581.18	5.467
581.38	5.467
581.57	5.472
581.76	5.459
581.96	5.480
582.15	5.475
582.34	5.476
582.54	5.456
582.73	5.462
582.92	5.471
583.12	5.468
583.31	5.480
583.50	5.478
583.70	5.483
583.89	5.506
584.08	5.505
584.28	5.514
584.47	5.527
584.66	5.543
584.86	5.540
585.05	5.553
585.24	5.560
585.44	5.572
585.63	5.597
585.82	5.618
586.02	5.619
586.21	5.631
586.40	5.635
586.60	5.652
586.79	5.663
586.98	5.663
587.18	5.662
587.37	5.669
587.56	5.660
587.76	5.658
587.95	5.649
588.14	5.658
588.34	5.653
588.53	5.672
588.72	5.668
588.92	5.672
589.11	5.689
589.30	5.687
589.50	5.704
589.69	5.725
589.88	5.725
590.07	5.732
590.27	5.741
590.46	5.754
590.65	5.755
590.85	5.765
591.04	5.774
591.23	5.785
591.43	5.798
591.62	5.811
591.81	5.808
592.00	5.816
592.20	5.831
592.39	5.842
592.58	5.856
592.78	5.870
592.97	5.888
593.16	5.894
593.35	5.894
593.55	5.904
593.74	5.904
593.93	5.920
594.13	5.931
594.32	5.941
594.51	5.958
594.70	5.958
594.90	5.954
595.09	5.941
595.28	5.948
595.47	5.961
595.67	5.959
595.86	5.967
596.05	5.967
596.24	5.978
596.44	5.976
596.63	5.965
596.82	5.954
597.02	5.963
597.21	5.981
597.40	5.983
597.59	5.990
597.79	5.992
597.98	5.990
598.17	5.996
598.36	5.996
598.56	6.008
598.75	6.007
598.94	6.027
599.13	6.032
599.32	6.047
599.52	6.055
599.71	6.069
599.90	6.085
600.09	6.091
600.29	6.093
600.48	6.103
600.67	6.093
600.86	6.112
601.06	6.118
601.25	6.131
601.44	6.122
601.63	6.137
601.82	6.130
602.02	6.144
602.21	6.157
602.40	6.170
602.59	6.175
602.79	6.192
602.98	6.212
603.17	6.228
603.36	6.232
603.55	6.242
603.75	6.239
603.94	6.241
604.13	6.232
604.32	6.234
604.51	6.227
604.71	6.226
604.90	6.222
605.09	6.224
605.28	6.214
605.47	6.206
605.67	6.207
605.86	6.213
606.05	6.226
606.24	6.248
606.43	6.254
606.63	6.266
606.82	6.270
607.01	6.284
607.20	6.286
607.39	6.297
607.59	6.310
607.78	6.335
607.97	6.345
608.16	6.323
608.35	6.319
608.54	6.328
608.74	6.343
608.93	6.369
609.12	6.365
609.31	6.367
609.50	6.379
609.69	6.393
609.89	6.388
610.08	6.397
610.27	6.425
610.46	6.447
610.65	6.459
610.84	6.459
611.04	6.449
611.23	6.465
611.42	6.482
611.61	6.481
611.80	6.480
611.99	6.482
612.19	6.475
612.38	6.473
612.57	6.465
612.76	6.465
612.95	6.486
613.14	6.514
613.33	6.523
613.53	6.526
613.72	6.551
613.91	6.546
614.10	6.573
614.29	6.583
614.48	6.590
614.67	6.600
614.86	6.614
615.06	6.617
615.25	6.601
615.44	6.618
615.63	6.627
615.82	6.632
616.01	6.652
616.20	6.634
616.39	6.638
616.59	6.636
616.78	6.631
616.97	6.643
617.16	6.654
617.35	6.670
617.54	6.656
617.73	6.659
617.92	6.682
618.12	6.675
618.31	6.690
618.50	6.703
618.69	6.721
618.88	6.735
619.07	6.719
619.26	6.715
619.45	6.729
619.64	6.754
619.83	6.756
620.03	6.760
620.22	6.790
620.41	6.808
620.60	6.816
620.79	6.832
620.98	6.833
621.17	6.850
621.36	6.849
621.55	6.855
621.74	6.849
621.93	6.870
622.12	6.862
622.32	6.864
622.51	6.851
622.70	6.867
622.89	6.857
623.08	6.862
623.27	6.870
623.46	6.883
623.65	6.876
623.84	6.887
624.03	6.891
624.22	6.904
624.41	6.890
624.60	6.924
624.79	6.935
624.99	6.948
625.18	6.959
625.37	6.973
625.56	6.990
625.75	7.008
625.94	7.024
626.13	7.022
626.32	7.019
626.51	7.035
626.70	7.023
626.89	7.010
627.08	7.023
627.27	7.035
627.46	7.033
627.65	7.039
627.84	7.033
628.03	7.033
628.22	7.038
628.41	7.051
628.60	7.057
628.79	7.067
628.98	7.058
629.17	7.049
629.37	7.060
629.56	7.076
629.75	7.084
629.94	7.102
630.13	7.093
630.32	7.103
630.51	7.106
630.70	7.114
630.89	7.125
631.08	7.171
631.27	7.185
631.46	7.197
631.65	7.194
631.84	7.197
632.03	7.180
632.22	7.192
632.41	7.203
632.60	7.217
632.79	7.224
632.98	7.228
633.17	7.230
633.36	7.243
633.55	7.227
633.74	7.246
633.93	7.251
634.12	7.275
634.31	7.298
634.50	7.303
634.69	7.300
634.88	7.315
635.07	7.304
635.26	7.298
635.45	7.297
635.64	7.307
635.83	7.305
636.02	7.307
636.21	7.327
636.40	7.320
636.59	7.318
636.78	7.305
636.96	7.304
637.15	7.312
637.34	7.318
637.53	7.338
637.72	7.344
637.91	7.341
638.10	7.346
638.29	7.361
638.48	7.390
638.67	7.406
638.86	7.436
639.05	7.451
639.24	7.478
639.43	7.498
639.62	7.491
639.81	7.506
640.00	7.511
640.19	7.542
640.38	7.533
640.57	7.519
640.76	7.510
640.95	7.521
641.14	7.514
641.32	7.539
641.51	7.537
641.70	7.540
641.89	7.551
642.08	7.579
642.27	7.555
642.46	7.574
642.65	7.588
642.84	7.610
643.03	7.604
643.22	7.618
643.41	7.616
643.60	7.642
643.79	7.664
643.98	7.655
644.16	7.658
644.35	7.673
644.54	7.658
644.73	7.657
644.92	7.667
645.11	7.689
645.30	7.706
645.49	7.721
645.68	7.704
645.87	7.711
646.06	7.735
646.24	7.749
646.43	7.753
646.62	7.764
646.81	7.776
647.00	7.763
647.19	7.766
647.38	7.767
647.57	7.737
647.76	7.762
647.95	7.758
648.13	7.756
648.32	7.749
648.51	7.763
648.70	7.760
648.89	7.769
649.08	7.783
649.27	7.784
649.46	7.790
649.65	7.807
649.83	7.805
650.02	7.804
650.21	7.836
650.40	7.846
650.59	7.846
650.78	7.861
650.97	7.861
651.16	7.867
651.34	7.874
651.53	7.882
651.72	7.879
651.91	7.879
652.10	7.896
652.29	7.888
652.48	7.900
652.66	7.915
652.85	7.945
653.04	7.960
653.23	7.962
653.42	7.967
653.61	7.954
653.80	7.995
653.98	8.000
654.17	8.016
654.36	8.013
654.55	8.018
654.74	8.046
654.93	8.039
655.11	8.028
655.30	8.041
655.49	8.059
655.68	8.077
655.87	8.071
656.06	8.082
656.24	8.088
656.43	8.093
656.62	8.100
656.81	8.077
657.00	8.092
657.19	8.124
657.37	8.137
657.56	8.131
657.75	8.081
657.94	8.112
658.13	8.113
658.31	8.125
658.50	8.149
658.69	8.165
658.88	8.161
659.07	8.172
659.26	8.163
659.44	8.176
659.63	8.191
659.82	8.260
660.01	8.240
660.20	8.235
660.38	8.233
660.57	8.250
660.76	8.247
660.95	8.268
661.14	8.279
661.32	8.296
661.51	8.297
661.70	8.303
661.89	8.299
662.08	8.315
662.26	8.333
662.45	8.342
662.64	8.343
662.83	8.350
663.01	8.350
663.20	8.351
663.39	8.369
663.58	8.382
663.77	8.394
663.95	8.416
664.14	8.419
664.33	8.437
664.52	8.433
664.70	8.431
664.89	8.439
665.08	8.453
665.27	8.436
665.45	8.421
665.64	8.418
665.83	8.423
666.02	8.409
666.20	8.408
666.39	8.411
666.58	8.416
666.77	8.407
666.95	8.405
667.14	8.410
667.33	8.448
667.52	8.474
667.70	8.479
667.89	8.482
668.08	8.511
668.27	8.514
668.45	8.526
668.64	8.559
668.83	8.569
669.02	8.593
669.20	8.608
669.39	8.610
669.58	8.622
669.77	8.646
669.95	8.640
670.14	8.599
670.33	8.623
670.51	8.621
670.70	8.622
670.89	8.621
671.08	8.635
671.26	8.655
671.45	8.661
671.64	8.656
671.82	8.656
672.01	8.683
672.20	8.720
672.39	8.717
672.57	8.744
672.76	8.745
672.95	8.778
673.13	8.770
673.32	8.769
673.51	8.764
673.70	8.754
673.88	8.755
674.07	8.758
674.26	8.784
674.44	8.813
674.63	8.795
674.82	8.821
675.00	8.808
675.19	8.811
675.38	8.815
675.56	8.827
675.75	8.871
675.94	8.877
676.12	8.870
676.31	8.880
676.50	8.860
676.69	8.911
676.87	8.905
677.06	8.905
677.25	8.912
677.43	8.912
677.62	8.912
677.81	8.912
677.99	8.942
678.18	8.945
678.37	8.936
678.55	8.950
678.74	8.945
678.93	8.958
679.11	8.967
679.30	8.966
679.48	8.971
679.67	8.980
679.86	8.970
680.04	8.954
680.23	8.948
680.42	8.956
680.60	8.961
680.79	8.955
680.98	8.932
681.16	8.945
681.35	8.961
681.54	8.948
681.72	8.943
681.91	8.945
682.10	8.961
682.28	9.001
682.47	9.015
682.65	9.028
682.84	9.028
683.03	9.059
683.21	9.059
683.40	9.047
683.59	9.076
683.77	9.079
683.96	9.095
684.14	9.105
684.33	9.091
684.52	9.111
684.70	9.104
684.89	9.123
685.07	9.115
685.26	9.131
685.45	9.152
685.63	9.137
685.82	9.179
686.00	9.196
686.19	9.219
686.38	9.264
686.56	9.278
686.75	9.329
686.93	9.315
687.12	9.325
687.31	9.339
687.49	9.344
687.68	9.355
687.86	9.347
688.05	9.315
688.24	9.311
688.42	9.283
688.61	9.243
688.79	9.230
688.98	9.254
689.17	9.261
689.35	9.258
689.54	9.252
689.72	9.241
689.91	9.244
690.09	9.306
690.28	9.298
690.47	9.301
690.65	9.329
690.84	9.341
691.02	9.336
691.21	9.346
691.39	9.370
691.58	9.407
691.76	9.441
691.95	9.460
692.14	9.435
692.32	9.450
692.51	9.493
692.69	9.535
692.88	9.522
693.06	9.528
693.25	9.529
693.43	9.541
693.62	9.544
693.81	9.540
693.99	9.537
694.18	9.555
694.36	9.550
694.55	9.552
694.73	9.532
694.92	9.549
695.10	9.528
695.29	9.562
695.47	9.537
695.66	9.535
695.84	9.587
696.03	9.575
696.21	9.568
696.40	9.587
696.59	9.584
696.77	9.581
696.96	9.579
697.14	9.624
697.33	9.652
697.51	9.693
697.70	9.695
697.88	9.677
698.07	9.718
698.25	9.736
698.44	9.754
698.62	9.767
698.81	9.762
698.99	9.784
699.18	9.793
699.36	9.750
699.55	9.735
699.73	9.731
699.92	9.728
700.10	9.713
700.29	9.730
700.47	9.710
700.66	9.705
700.84	9.711
701.03	9.700
701.21	9.693
701.40	9.706
701.58	9.728
701.77	9.759
701.95	9.798
702.13	9.815
702.32	9.823
702.50	9.853
702.69	9.861
702.87	9.883
703.06	9.917
703.24	9.929
703.43	9.939
703.61	9.940
703.80	9.948
703.98	9.905
704.17	9.929
704.35	9.906
704.54	9.930
704.72	9.936
704.90	9.930
705.09	9.887
705.27	9.934
705.46	9.957
705.64	9.945
705.83	9.914
706.01	9.946
706.20	9.954
706.38	10.007
706.56	10.009
706.75	10.005
706.93	10.015
707.12	10.024
707.30	10.027
707.49	10.067
707.67	10.130
707.86	10.171
708.04	10.217
708.22	10.202
708.41	10.157
708.59	10.136
708.78	10.152
708.96	10.168
709.14	10.225
709.33	10.218
709.51	10.178
709.70	10.152
709.88	10.162
710.07	10.148
710.25	10.193
710.43	10.221
710.62	10.230
710.80	10.224
710.99	10.250
711.17	10.234
711.35	10.233
711.54	10.266
711.72	10.285
711.91	10.307
712.09	10.314
712.27	10.276
712.46	10.306
712.64	10.331
712.83	10.341
713.01	10.351
713.19	10.360
713.38	10.375
713.56	10.381
713.75	10.389
713.93	10.363
714.11	10.341
714.30	10.381
714.48	10.356
714.66	10.362
714.85	10.385
715.03	10.381
715.22	10.381
715.40	10.403
715.58	10.426
715.77	10.448
715.95	10.516
716.13	10.549
716.32	10.517
716.50	10.520
716.68	10.526
716.87	10.536
717.05	10.522
717.24	10.516
717.42	10.512
717.60	10.509
717.79	10.492
717.97	10.436
718.15	10.443
718.34	10.491
718.52	10.562
718.70	10.550
718.89	10.570
719.07	10.564
719.25	10.591
719.44	10.627
719.62	10.641
719.80	10.659
719.99	10.673
720.17	10.681
720.35	10.691
720.54	10.617
720.72	10.659
720.90	10.661
721.09	10.719
721.27	10.713
721.45	10.677
721.64	10.663
721.82	10.665
722.00	10.705
722.19	10.700
722.37	10.691
722.55	10.736
722.74	10.732
722.92	10.751
723.10	10.748
723.28	10.808
723.47	10.838
723.65	10.886
723.83	10.892
724.02	10.876
724.20	10.897
724.38	10.907
724.57	10.928
724.75	10.961
724.93	10.920
725.11	10.952
725.30	10.917
725.48	10.926
725.66	10.907
725.85	10.927
726.03	10.912
726.21	10.958
726.39	10.948
726.58	10.996
726.76	10.978
726.94	11.003
727.13	10.950
727.31	10.993
727.49	10.993
727.67	11.037
727.86	11.042
728.04	11.094
728.22	11.027
728.40	11.083
728.59	11.034
728.77	11.045
728.95	11.090
729.13	11.115
729.32	11.066
729.50	11.077
729.68	11.078
729.86	11.077
730.05	11.068
730.23	11.114
730.41	11.122
730.59	11.138
730.78	11.131
730.96	11.116
731.14	11.159
731.32	11.193
731.51	11.192
731.69	11.168
731.87	11.166
732.05	11.187
732.24	11.218
732.42	11.209
732.60	11.210
732.78	11.231
732.97	11.225
733.15	11.207
733.33	11.244
733.51	11.271
733.69	11.267
733.88	11.260
734.06	11.295
734.24	11.263
734.42	11.270
734.60	11.287
734.79	11.286
734.97	11.326
735.15	11.323
735.33	11.299
735.52	11.292
735.70	11.305
735.88	11.352
736.06	11.330
736.24	11.382
736.43	11.388
736.61	11.405
736.79	11.443
736.97	11.408
737.15	11.441
737.34	11.440
737.52	11.446
737.70	11.454
737.88	11.473
738.06	11.439
738.24	11.461
738.43	11.416
738.61	11.429
738.79	11.418
738.97	11.463
739.15	11.435
739.33	11.416
739.52	11.427
739.70	11.477
739.88	11.476
740.06	11.504
740.24	11.459
740.42	11.497
740.61	11.475
740.79	11.499
740.97	11.471
741.15	11.534
741.33	11.595
741.51	11.629
741.70	11.607
741.88	11.642
742.06	11.673
742.24	11.715
742.42	11.728
742.60	11.758
742.78	11.753
742.97	11.793
743.15	11.773
743.33	11.814
743.51	11.761
743.69	11.790
743.87	11.765
744.05	11.781
744.24	11.782
744.42	11.760
744.60	11.743
744.78	11.779
744.96	11.811
745.14	11.858
745.32	11.814
745.50	11.863
745.69	11.857
745.87	11.905
746.05	11.869
746.23	11.865
746.41	11.877
746.59	11.906
746.77	11.865
746.95	11.839
747.13	11.758
747.32	11.781
747.50	11.810
747.68	11.820
747.86	11.779
748.04	11.869
748.22	11.882
748.40	11.943
748.58	11.934
748.76	11.961
748.94	11.996
749.13	12.100
749.31	12.104
749.49	12.105
749.67	12.177
749.85	12.219
750.03	12.188
750.21	12.224
750.39	12.234
750.57	12.300
750.75	12.277
750.93	12.246
751.11	12.248
751.30	12.269
751.48	12.257
751.66	12.209
751.84	12.191
752.02	12.230
752.20	12.221
752.38	12.240
752.56	12.191
752.74	12.253
752.92	12.282
753.10	12.285
753.28	12.297
753.46	12.337
753.64	12.313
753.82	12.335
754.00	12.249
754.18	12.289
754.37	12.262
754.55	12.328
754.73	12.283
754.91	12.301
755.09	12.262
755.27	12.272
755.45	12.240
755.63	12.309
755.81	12.307
755.99	12.370
756.17	12.330
756.35	12.378
756.53	12.348
756.71	12.400
756.89	12.401
757.07	12.398
757.25	12.351
757.43	12.369
757.61	12.325
757.79	12.338
757.97	12.336
758.15	12.368
758.33	12.370
758.51	12.419
758.69	12.415
758.87	12.428
759.05	12.437
759.23	12.480
759.41	12.507
759.59	12.571
759.77	12.597
759.95	12.606
760.13	12.619
760.31	12.613
760.49	12.605
760.67	12.646
760.85	12.689
761.03	12.749
761.21	12.822
761.39	12.841
761.57	12.854
761.75	12.842
761.93	12.853
762.11	12.839
762.29	12.842
762.47	12.866
762.65	12.826
762.83	12.771
763.01	12.777
763.19	12.772
763.37	12.790
763.55	12.837
763.73	12.887
763.91	12.933
764.09	12.934
764.27	12.955
764.45	12.908
764.63	12.905
764.81	12.923
764.99	12.907
765.16	12.859
765.34	12.858
765.52	12.832
765.70	12.816
765.88	12.792
766.06	12.794
766.24	12.769
766.42	12.772
766.60	12.788
766.78	12.781
766.96	12.804
767.14	12.853
767.32	12.843
767.50	12.794
767.68	12.783
767.86	12.826
768.03	12.857
768.21	12.924
768.39	12.932
768.57	12.956
768.75	12.988
768.93	12.984
769.11	13.003
769.29	13.027
769.47	13.106
769.65	13.137
769.83	13.089
770.01	13.156
770.19	13.147
770.36	13.247
770.54	13.280
770.72	13.292
770.90	13.276
771.08	13.292
771.26	13.276
771.44	13.278
771.62	13.261
771.80	13.275
771.98	13.158
772.15	13.183
772.33	13.127
772.51	13.123
772.69	13.139
772.87	13.245
773.05	13.235
773.23	13.299
773.41	13.280
773.58	13.316
773.76	13.347
773.94	13.326
774.12	13.259
774.30	13.304
774.48	13.233
774.66	13.204
774.84	13.132
775.01	13.148
775.19	13.133
775.37	13.155
775.55	13.153
775.73	13.193
775.91	13.247
776.09	13.318
776.26	13.295
776.44	13.343
776.62	13.386
776.80	13.407
776.98	13.478
777.16	13.460
777.34	13.518
777.51	13.519
777.69	13.443
777.87	13.496
778.05	13.500
778.23	13.539
778.41	13.571
778.58	13.600
778.76	13.608
778.94	13.529
779.12	13.562
779.30	13.536
779.48	13.488
779.65	13.626
779.83	13.579
780.01	13.618
780.19	13.654
780.37	13.652
780.55	13.634
780.72	13.653
780.90	13.651
781.08	13.641
781.26	13.725
781.44	13.806
781.61	13.772
781.79	13.862
781.97	13.763
782.15	13.766
782.33	13.749
782.50	13.698
782.68	13.730
782.86	13.731
783.04	13.716
783.22	13.653
783.39	13.620
783.57	13.580
783.75	13.538
783.93	13.612
784.11	13.621
784.28	13.503
784.46	13.616
784.64	13.636
784.82	13.664
784.99	13.645
785.17	13.605
785.35	13.690
785.53	13.700
785.71	13.685
785.88	13.644
786.06	13.619
786.24	13.859
786.42	13.778
786.59	13.670
786.77	13.693
786.95	13.731
787.13	13.780
787.30	13.761
787.48	13.802
787.66	13.851
787.84	13.952
788.01	14.076
788.19	14.110
788.37	14.162
788.55	14.280
788.72	14.372
788.90	14.387
789.08	14.446
789.26	14.428
789.43	14.411
789.61	14.415
789.79	14.406
789.97	14.337
790.14	14.284
790.32	14.381
790.50	14.404
790.68	14.421
790.85	14.458
791.03	14.390
791.21	14.442
791.38	14.505
791.56	14.531
791.74	14.579
791.92	14.488
792.09	14.561
792.27	14.525
792.45	14.486
792.62	14.378
792.80	14.383
792.98	14.354
793.16	14.332
793.33	14.263
793.51	14.319
793.69	14.232
793.86	14.299
794.04	14.205
794.22	14.161
794.39	14.167
794.57	14.216
794.75	14.308
794.93	14.468
795.10	14.417
795.28	14.485
795.46	14.447
795.63	14.509
795.81	14.614
795.99	14.616
796.16	14.634
796.34	14.704
796.52	14.642
796.69	14.596
796.87	14.621
797.05	14.722
797.22	14.619
797.40	14.718
797.58	14.722
797.75	14.715
797.93	14.755
798.11	14.814
798.28	14.849
798.46	14.872
798.64	14.746
798.81	14.705
798.99	14.664
799.17	14.737
799.34	14.617
799.52	14.651
799.70	14.657
799.87	14.715
800.05	14.551
800.22	14.467
800.40	14.463
800.58	14.585
800.75	14.615
800.93	14.642
801.11	14.643
801.28	14.778
801.46	14.663
801.63	14.707
801.81	14.636
801.99	14.793
802.16	14.812
802.34	14.917
802.52	14.910
802.69	14.894
802.87	14.892
803.04	14.957
803.22	14.912
803.40	14.995
803.57	15.024
803.75	15.050
803.93	14.965
804.10	15.009
804.28	14.968
804.45	15.003
804.63	15.064
804.81	15.093
804.98	15.093
805.16	15.131
805.33	15.212
805.51	15.139
805.68	15.189
805.86	15.241
806.04	15.189
806.21	15.264
806.39	15.408
806.56	15.319
806.74	15.266
806.92	15.277
807.09	15.279
807.27	15.301
807.44	15.245
807.62	15.283
807.79	15.399
807.97	15.445
808.15	15.454
808.32	15.335
808.50	15.349
808.67	15.455
808.85	15.466
809.02	15.411
809.20	15.260
809.38	15.373
809.55	15.344
809.73	15.245
809.90	15.304
810.08	15.249
810.25	15.256
810.43	15.259
810.60	15.241
810.78	15.191
810.95	15.154
811.13	15.326
811.31	15.145
811.48	15.182
811.66	15.260
811.83	15.174
812.01	15.172
812.18	15.112
812.36	15.069
812.53	15.078
812.71	15.200
812.88	15.267
813.06	15.139
813.23	15.258
813.41	15.370
813.58	15.362
813.76	15.420
813.93	15.477
814.11	15.486
814.28	15.574
814.46	15.657
814.63	15.675
814.81	15.570
814.98	15.663
815.16	15.698
815.33	15.467
815.51	15.530
815.68	15.523
815.86	15.529
816.03	15.607
816.21	15.580
816.38	15.416
816.56	15.323
816.73	15.453
816.91	15.457
817.08	15.576
817.26	15.578
817.43	15.611
817.61	15.661
817.78	15.634
817.96	15.521
818.13	15.574
818.31	15.696
818.48	15.797
818.66	15.800
818.83	15.796
819.01	15.671
819.18	15.824
819.36	15.748
819.53	15.713
819.70	15.718
819.88	15.951
820.05	16.020
820.23	16.135
820.40	16.133
820.58	16.207
820.75	16.302
820.93	16.357
821.10	16.348
821.28	16.445
821.45	16.510
821.62	16.622
821.80	16.589
821.97	16.618
822.15	16.644
822.32	16.726
822.50	16.848
822.67	17.042
822.84	17.103
823.02	17.084
823.19	16.981
823.37	16.849
823.54	16.720
823.72	16.602
823.89	16.495
824.06	16.429
824.24	16.362
824.41	16.302
824.59	16.216
824.76	16.145
824.94	16.071
825.11	16.013
825.28	15.976
825.46	15.954
825.63	15.970
825.81	16.002
825.98	16.027
826.15	16.097
826.33	16.118
826.50	16.172
826.68	16.226
826.85	16.283
827.02	16.311
827.20	16.409
827.37	16.509
827.54	16.626
827.72	16.764
827.89	16.842
828.07	16.874
828.24	16.913
828.41	16.902
828.59	16.870
828.76	16.828
828.94	16.828
829.11	16.776
829.28	16.762
829.46	16.685
829.63	16.626
829.80	16.581
829.98	16.503
830.15	16.458
830.32	16.419
830.50	16.398
830.67	16.454
830.85	16.470
831.02	16.509
831.19	16.493
831.37	16.607
831.54	16.647
831.71	16.671
831.89	16.757
832.06	16.825
832.23	16.846
832.41	16.968
832.58	16.941
832.75	17.019
832.93	17.054
833.10	17.015
833.27	16.995
833.45	17.118
833.62	17.120
833.79	17.166
833.97	17.249
834.14	17.387
834.31	17.490
834.49	17.666
834.66	17.560
834.83	17.606
835.01	17.559
835.18	17.519
835.35	17.424
835.52	17.381
835.70	17.327
835.87	17.275
836.04	17.198
836.22	17.092
836.39	16.936
836.56	16.915
836.74	16.850
836.91	16.855
837.08	16.818
837.25	16.841
837.43	16.829
837.60	16.855
837.77	16.798
837.95	16.876
838.12	16.921
838.29	17.004
838.46	16.949
838.64	16.897
838.81	16.733
838.98	16.762
839.16	16.611
839.33	16.616
839.50	16.480
839.67	16.624
839.85	16.363
840.02	16.409
840.19	16.325
840.36	16.643
840.54	16.711
840.71	16.934
840.88	16.949
841.06	17.156
841.23	17.203
841.40	17.463
841.57	17.400
841.75	17.553
841.92	17.547
842.09	17.561
842.26	17.388
842.44	17.299
842.61	17.244
842.78	17.273
842.95	17.263
843.12	17.173
843.30	16.855
843.47	16.823
843.64	16.736
843.81	16.781
843.99	16.786
844.16	16.928
844.33	16.959
844.50	16.954
844.68	16.730
844.85	16.481
845.02	16.672
845.19	16.922
845.36	16.686
845.54	16.701
845.71	16.369
845.88	16.406
846.05	16.091
846.22	15.988
846.40	16.017
846.57	16.195
846.74	16.165
846.91	15.702
847.08	15.773
847.26	16.056
847.43	16.196
847.60	16.274
847.77	16.346
847.94	16.489
848.12	16.815
848.29	16.700
848.46	16.734
848.63	16.922
848.80	17.235
848.98	17.060
849.15	17.115
849.32	16.899
849.49	16.987
849.66	16.756
849.83	16.461
850.01	16.513
850.18	16.332
850.35	16.151
850.52	16.406
850.69	16.411
850.86	16.316
851.04	15.868
851.21	15.680
851.38	15.634
851.55	15.521
851.72	15.462
851.89	15.302
852.06	15.602
852.24	15.531
852.41	15.460
852.58	15.554
852.75	15.772
852.92	16.342
853.09	16.728
853.26	16.606
853.44	17.112
853.61	17.620
853.78	17.643
853.95	17.522
854.12	17.732
854.29	17.777
854.46	17.744
854.64	17.558
854.81	17.287
854.98	16.995
855.15	16.916
855.32	16.782
855.49	16.549
855.66	16.284
855.83	16.723
856.00	16.919
856.18	16.762
856.35	16.590
856.52	16.905
856.69	17.102
856.86	17.276
857.03	17.406
857.20	17.367
857.37	17.518
857.54	17.941
857.71	17.455
857.89	17.349
858.06	17.034
858.23	17.108
858.40	16.806
858.57	16.583
858.74	16.365
858.91	16.660
859.08	16.361
859.25	16.375
859.42	16.075
859.59	16.387
859.76	16.235
859.94	16.531
860.11	16.504
860.28	16.654
860.45	16.786
860.62	17.326
860.79	16.851
860.96	17.010
861.13	16.736
861.30	16.709
861.47	16.478
861.64	16.681
861.81	16.656
861.98	16.653
862.15	16.757
862.32	16.922
862.49	16.482
862.66	16.884
862.83	16.703
863.01	17.028
863.18	17.029
863.35	16.994
863.52	17.107
863.69	17.148
863.86	16.926
864.03	16.629
864.20	16.699
864.37	16.887
864.54	16.690
864.71	17.240
864.88	17.279
865.05	17.330
865.22	17.338
865.39	17.417
865.56	17.428
865.73	17.954
865.90	18.120
866.07	18.100
866.24	17.923
866.41	18.394
866.58	18.112
866.75	18.077
866.92	18.084
867.09	18.216
867.26	18.092
867.43	18.066
867.60	17.806
867.77	17.906
867.94	17.797
868.11	17.797
868.28	17.713
868.45	17.554
868.62	17.476
868.79	17.542
868.96	17.852
869.13	17.791
869.30	17.813
869.47	17.877
869.64	17.673
869.81	17.832
869.98	17.877
870.15	17.862
870.32	18.148
870.49	17.993
870.66	18.039
870.83	17.561
871.00	17.598
871.16	17.518
871.33	17.446
871.50	17.609
871.67	17.504
871.84	17.217
872.01	17.125
872.18	17.028
872.35	17.482
872.52	17.587
872.69	17.263
872.86	17.352
873.03	17.772
873.20	18.167
873.37	18.120
873.54	18.012
873.71	18.362
873.88	18.282
874.05	18.450
874.21	18.201
874.38	17.854
874.55	18.435
874.72	18.081
874.89	17.763
875.06	17.470
875.23	17.695
875.40	17.622
875.57	17.892
875.74	17.833
875.91	17.836
876.08	18.000
876.24	18.245
876.41	18.075
876.58	18.514
876.75	18.397
876.92	18.288
877.09	18.172
877.26	18.471
877.43	18.014
877.60	18.131
877.77	18.150
877.93	18.275
878.10	18.384
878.27	18.361
878.44	17.998
878.61	18.302
878.78	18.349
878.95	18.295
879.12	18.354
879.28	18.724
879.45	18.739
879.62	18.729
879.79	18.420
879.96	18.616
880.13	18.560
880.30	18.871
880.47	18.980
880.63	19.164
880.80	19.317
880.97	19.277
881.14	19.315
881.31	19.663
881.48	19.886
881.65	20.269
881.81	20.320
881.98	20.779
882.15	20.949
882.32	21.140
882.49	21.255
882.66	21.226
882.82	21.184
882.99	21.105
883.16	20.979
883.33	20.908
883.50	20.808
883.67	20.778
883.83	20.678
884.00	20.604
884.17	20.486
884.34	20.399
884.51	20.346
884.68	20.276
884.84	20.235
885.01	20.217
885.18	20.192
885.35	20.194
885.52	20.147
885.68	20.153
885.85	20.113
886.02	20.299
886.19	20.071
886.36	20.012
886.53	20.222
886.69	19.552
>>>>>End Spectral Data<<<<<
