OOIBase32 Version 2.0.6.5 Data File
++++++++++++++++++++++++++++++++++++
Date: 03-24-2011, 10:56:27
User: Valued Ocean Optics Customer
Spectrometer Serial Number: USB4C01507
Spectrometer Channel: Master
Integration Time (msec): 46
Spectra Averaged: 30
Boxcar Smoothing: 5
Correct for Electrical Dark: Enabled
Time Normalized: Disabled
Dual-beam Reference: Disabled
Reference Channel: Master
Temperature: Not acquired
Spectrometer Type: S4000
ADC Type: USB4000
Number of Pixels in File: 3648
Graph Title: 
>>>>>Begin Spectral Data<<<<<
179.17	1284.690
179.39	3299.784
179.60	-126.221
179.82	-160.448
180.03	-61.811
180.24	22.727
180.46	32.212
180.67	67.731
180.89	-23.609
181.10	-268.651
181.31	123.118
181.53	54.566
181.74	-36.069
181.96	136.640
182.17	187.965
182.39	-9.103
182.60	26.878
182.81	148.346
183.03	50.916
183.24	-369.067
183.46	-8.033
183.67	-8.279
183.88	-14.032
184.10	3.062
184.31	4.436
184.53	9.939
184.74	-1.017
184.96	14.103
185.17	9.142
185.38	3.323
185.60	10.878
185.81	13.246
186.03	17.548
186.24	20.098
186.45	14.406
186.67	6.792
186.88	5.317
187.10	15.285
187.31	7.245
187.52	8.041
187.74	11.072
187.95	8.493
188.17	5.353
188.38	-2.520
188.59	2.057
188.81	2.764
189.02	12.393
189.24	17.395
189.45	10.221
189.66	8.935
189.88	-1.644
190.09	-3.868
190.30	-7.776
190.52	-5.686
190.73	0.473
190.95	-4.008
191.16	-2.129
191.37	-5.697
191.59	-5.748
191.80	-9.708
192.02	-9.244
192.23	3.268
192.44	-6.605
192.66	-0.391
192.87	-8.229
193.08	-10.015
193.30	-8.034
193.51	-1.359
193.73	-2.286
193.94	-2.172
194.15	3.960
194.37	12.532
194.58	8.536
194.79	8.037
195.01	6.790
195.22	14.926
195.44	16.035
195.65	10.423
195.86	6.484
196.08	3.278
196.29	5.851
196.50	5.682
196.72	5.964
196.93	12.358
197.14	12.950
197.36	15.791
197.57	13.798
197.79	16.364
198.00	15.898
198.21	18.725
198.43	27.128
198.64	26.164
198.85	26.711
199.07	24.753
199.28	24.252
199.49	24.250
199.71	22.183
199.92	23.367
200.13	18.283
200.35	24.398
200.56	18.465
200.78	14.201
200.99	12.641
201.20	12.095
201.42	13.481
201.63	7.470
201.84	9.004
202.06	10.395
202.27	13.484
202.48	11.788
202.70	4.190
202.91	4.186
203.12	2.656
203.34	1.542
203.55	4.163
203.76	1.768
203.98	8.318
204.19	8.043
204.40	8.359
204.62	6.428
204.83	6.859
205.04	10.365
205.26	12.504
205.47	13.431
205.68	12.289
205.90	6.574
206.11	6.912
206.32	3.337
206.54	5.406
206.75	9.117
206.96	2.558
207.18	8.481
207.39	11.883
207.60	16.048
207.82	17.253
208.03	20.843
208.24	25.581
208.45	26.964
208.67	23.077
208.88	18.685
209.09	10.727
209.31	11.990
209.52	6.734
209.73	4.134
209.95	2.852
210.16	0.461
210.37	-1.705
210.59	-1.622
210.80	-5.104
211.01	-1.133
211.23	4.802
211.44	7.942
211.65	10.825
211.86	11.789
212.08	11.988
212.29	8.762
212.50	6.001
212.72	5.695
212.93	3.753
213.14	6.647
213.36	5.876
213.57	2.048
213.78	5.094
213.99	7.489
214.21	10.784
214.42	12.829
214.63	17.045
214.85	17.087
215.06	17.639
215.27	21.218
215.49	17.548
215.70	16.081
215.91	15.337
216.12	11.786
216.34	7.635
216.55	6.639
216.76	7.113
216.98	1.993
217.19	6.195
217.40	7.753
217.61	7.219
217.83	11.276
218.04	12.310
218.25	13.500
218.47	14.171
218.68	15.742
218.89	13.105
219.10	12.207
219.32	13.281
219.53	12.466
219.74	12.449
219.95	10.134
220.17	9.330
220.38	11.129
220.59	9.366
220.81	8.436
221.02	9.261
221.23	11.790
221.44	10.333
221.66	11.177
221.87	11.375
222.08	11.133
222.29	13.085
222.51	13.947
222.72	12.816
222.93	14.465
223.14	15.294
223.36	14.587
223.57	13.535
223.78	13.643
223.99	13.467
224.21	13.412
224.42	12.759
224.63	11.552
224.84	10.313
225.06	10.823
225.27	10.782
225.48	11.002
225.69	11.129
225.91	11.110
226.12	11.241
226.33	11.814
226.54	11.259
226.76	11.475
226.97	11.398
227.18	11.241
227.39	11.019
227.61	10.836
227.82	10.732
228.03	10.709
228.24	10.655
228.46	10.809
228.67	10.631
228.88	10.585
229.09	10.445
229.31	10.496
229.52	10.514
229.73	10.597
229.94	10.575
230.16	10.617
230.37	10.624
230.58	10.446
230.79	10.034
231.00	10.129
231.22	10.350
231.43	10.535
231.64	10.457
231.85	10.771
232.07	10.656
232.28	10.692
232.49	10.506
232.70	10.276
232.91	10.618
233.13	10.793
233.34	10.339
233.55	10.647
233.76	10.283
233.98	10.400
234.19	10.116
234.40	10.012
234.61	10.290
234.82	10.442
235.04	10.375
235.25	10.468
235.46	10.377
235.67	10.621
235.88	10.102
236.10	10.205
236.31	9.939
236.52	10.275
236.73	10.586
236.94	10.353
237.16	9.687
237.37	9.846
237.58	9.425
237.79	9.569
238.01	9.283
238.22	9.274
238.43	9.356
238.64	9.397
238.85	8.866
239.06	8.623
239.28	8.316
239.49	8.757
239.70	8.571
239.91	8.696
240.12	8.406
240.34	8.573
240.55	8.707
240.76	8.738
240.97	8.648
241.18	8.602
241.40	8.508
241.61	8.550
241.82	8.499
242.03	8.623
242.24	8.571
242.45	8.610
242.67	8.672
242.88	8.659
243.09	8.491
243.30	8.424
243.51	8.618
243.73	8.624
243.94	8.550
244.15	8.432
244.36	8.237
244.57	8.420
244.78	8.344
245.00	8.070
245.21	7.842
245.42	7.846
245.63	7.889
245.84	7.851
246.05	7.882
246.27	7.926
246.48	7.940
246.69	7.927
246.90	7.865
247.11	7.818
247.32	7.848
247.54	7.934
247.75	7.976
247.96	7.991
248.17	8.045
248.38	8.036
248.59	8.085
248.81	8.053
249.02	8.050
249.23	7.953
249.44	8.086
249.65	8.089
249.86	7.809
250.07	7.793
250.29	7.564
250.50	7.410
250.71	7.320
250.92	7.185
251.13	7.193
251.34	7.332
251.55	7.457
251.77	7.482
251.98	7.442
252.19	7.538
252.40	7.510
252.61	7.590
252.82	7.590
253.03	7.645
253.25	7.652
253.46	7.706
253.67	7.638
253.88	7.399
254.09	7.301
254.30	7.411
254.51	7.502
254.73	7.567
254.94	7.582
255.15	7.589
255.36	7.592
255.57	7.423
255.78	7.459
255.99	7.296
256.20	7.512
256.42	7.620
256.63	7.293
256.84	7.119
257.05	7.060
257.26	7.118
257.47	7.113
257.68	7.005
257.89	7.132
258.10	7.132
258.32	7.089
258.53	7.011
258.74	6.916
258.95	6.957
259.16	7.020
259.37	6.960
259.58	6.916
259.79	6.932
260.00	6.932
260.22	6.913
260.43	6.942
260.64	6.907
260.85	6.965
261.06	6.967
261.27	6.982
261.48	6.933
261.69	6.965
261.90	6.985
262.12	6.972
262.33	7.090
262.54	7.102
262.75	6.983
262.96	7.124
263.17	7.104
263.38	7.311
263.59	7.364
263.80	7.427
264.01	7.415
264.22	7.287
264.44	7.105
264.65	6.813
264.86	6.867
265.07	6.672
265.28	6.659
265.49	6.553
265.70	6.366
265.91	6.306
266.12	6.244
266.33	6.210
266.54	6.302
266.75	6.338
266.97	6.443
267.18	6.367
267.39	6.517
267.60	6.511
267.81	6.603
268.02	6.588
268.23	6.636
268.44	6.654
268.65	6.637
268.86	6.631
269.07	6.654
269.28	6.572
269.49	6.669
269.70	6.508
269.92	6.464
270.13	6.339
270.34	6.406
270.55	6.305
270.76	6.280
270.97	6.376
271.18	6.293
271.39	6.227
271.60	6.301
271.81	6.256
272.02	6.335
272.23	6.319
272.44	6.381
272.65	6.336
272.86	6.391
273.07	6.412
273.28	6.368
273.49	6.452
273.71	6.468
273.92	6.495
274.13	6.391
274.34	6.285
274.55	6.384
274.76	6.284
274.97	6.343
275.18	6.252
275.39	6.213
275.60	6.302
275.81	6.305
276.02	6.311
276.23	6.244
276.44	6.256
276.65	6.402
276.86	6.275
277.07	6.323
277.28	6.411
277.49	6.552
277.70	6.494
277.91	6.486
278.12	6.393
278.33	6.383
278.54	6.396
278.75	6.349
278.96	6.248
279.17	6.281
279.39	6.240
279.60	6.128
279.81	5.973
280.02	5.930
280.23	5.968
280.44	5.945
280.65	5.962
280.86	5.976
281.07	6.044
281.28	6.076
281.49	6.057
281.70	6.140
281.91	6.135
282.12	6.217
282.33	6.269
282.54	6.190
282.75	6.298
282.96	6.351
283.17	6.349
283.38	6.294
283.59	6.214
283.80	6.190
284.01	6.000
284.22	5.994
284.43	5.920
284.64	5.875
284.85	5.881
285.06	5.827
285.27	5.800
285.48	5.744
285.69	5.732
285.90	5.797
286.11	5.824
286.32	5.870
286.53	5.830
286.74	5.908
286.95	5.934
287.16	6.003
287.37	5.947
287.58	5.826
287.79	5.808
288.00	5.771
288.21	5.622
288.42	5.478
288.63	5.519
288.84	5.517
289.05	5.463
289.26	5.462
289.47	5.304
289.68	5.350
289.89	5.370
290.10	5.334
290.31	5.332
290.51	5.351
290.72	5.416
290.93	5.470
291.14	5.441
291.35	5.432
291.56	5.435
291.77	5.455
291.98	5.380
292.19	5.489
292.40	5.566
292.61	5.556
292.82	5.662
293.03	5.701
293.24	5.629
293.45	5.689
293.66	5.667
293.87	5.657
294.08	5.603
294.29	5.706
294.50	5.584
294.71	5.537
294.92	5.578
295.13	5.522
295.34	5.464
295.55	5.367
295.76	5.253
295.96	5.264
296.17	5.261
296.38	5.308
296.59	5.257
296.80	5.229
297.01	5.220
297.22	5.228
297.43	5.225
297.64	5.238
297.85	5.281
298.06	5.318
298.27	5.325
298.48	5.298
298.69	5.307
298.90	5.306
299.11	5.332
299.32	5.333
299.53	5.296
299.73	5.261
299.94	5.243
300.15	5.214
300.36	5.248
300.57	5.165
300.78	5.135
300.99	5.141
301.20	5.060
301.41	5.042
301.62	5.085
301.83	5.069
302.04	5.066
302.25	5.066
302.45	5.086
302.66	5.059
302.87	5.094
303.08	5.078
303.29	5.007
303.50	5.119
303.71	5.197
303.92	5.148
304.13	5.183
304.34	5.172
304.55	5.183
304.76	5.171
304.96	5.129
305.17	5.145
305.38	5.148
305.59	5.215
305.80	5.171
306.01	5.145
306.22	5.117
306.43	5.057
306.64	5.003
306.85	4.977
307.06	4.941
307.26	4.955
307.47	4.843
307.68	4.933
307.89	4.885
308.10	4.812
308.31	4.802
308.52	4.841
308.73	4.861
308.94	4.912
309.14	4.883
309.35	4.908
309.56	4.939
309.77	4.969
309.98	4.881
310.19	4.912
310.40	4.937
310.61	4.899
310.82	4.879
311.02	4.868
311.23	4.831
311.44	4.810
311.65	4.776
311.86	4.694
312.07	4.704
312.28	4.671
312.49	4.614
312.69	4.561
312.90	4.527
313.11	4.493
313.32	4.479
313.53	4.457
313.74	4.393
313.95	4.432
314.16	4.486
314.36	4.507
314.57	4.555
314.78	4.516
314.99	4.570
315.20	4.622
315.41	4.658
315.62	4.610
315.82	4.676
316.03	4.760
316.24	4.755
316.45	4.784
316.66	4.758
316.87	4.800
317.08	4.826
317.28	4.873
317.49	4.829
317.70	4.804
317.91	4.823
318.12	4.837
318.33	4.815
318.54	4.771
318.74	4.723
318.95	4.716
319.16	4.717
319.37	4.722
319.58	4.677
319.79	4.685
319.99	4.687
320.20	4.723
320.41	4.653
320.62	4.645
320.83	4.607
321.04	4.633
321.24	4.616
321.45	4.602
321.66	4.590
321.87	4.587
322.08	4.612
322.29	4.587
322.49	4.591
322.70	4.600
322.91	4.632
323.12	4.718
323.33	4.696
323.54	4.701
323.74	4.629
323.95	4.575
324.16	4.543
324.37	4.497
324.58	4.510
324.79	4.468
324.99	4.450
325.20	4.439
325.41	4.412
325.62	4.406
325.83	4.401
326.03	4.384
326.24	4.438
326.45	4.475
326.66	4.446
326.87	4.433
327.07	4.411
327.28	4.433
327.49	4.438
327.70	4.375
327.91	4.371
328.11	4.344
328.32	4.420
328.53	4.453
328.74	4.440
328.95	4.476
329.15	4.497
329.36	4.518
329.57	4.492
329.78	4.517
329.99	4.527
330.19	4.500
330.40	4.475
330.61	4.430
330.82	4.358
331.03	4.313
331.23	4.309
331.44	4.301
331.65	4.250
331.86	4.324
332.07	4.256
332.27	4.255
332.48	4.265
332.69	4.279
332.90	4.260
333.10	4.280
333.31	4.292
333.52	4.240
333.73	4.234
333.94	4.240
334.14	4.141
334.35	4.137
334.56	4.149
334.77	4.118
334.97	4.139
335.18	4.099
335.39	4.090
335.60	4.047
335.80	4.079
336.01	4.052
336.22	4.050
336.43	4.073
336.64	4.128
336.84	4.124
337.05	4.121
337.26	4.085
337.47	4.120
337.67	4.134
337.88	4.125
338.09	4.139
338.30	4.137
338.50	4.167
338.71	4.156
338.92	4.121
339.13	4.121
339.33	4.131
339.54	4.077
339.75	4.082
339.96	4.065
340.16	4.097
340.37	4.114
340.58	4.085
340.79	4.092
340.99	4.077
341.20	4.062
341.41	4.021
341.62	4.044
341.82	4.097
342.03	4.055
342.24	3.998
342.44	3.982
342.65	3.948
342.86	3.954
343.07	3.926
343.27	3.974
343.48	3.922
343.69	3.949
343.90	3.946
344.10	3.908
344.31	3.938
344.52	3.999
344.72	4.009
344.93	3.997
345.14	4.011
345.35	3.993
345.55	3.985
345.76	4.039
345.97	4.057
346.18	4.008
346.38	4.045
346.59	4.011
346.80	4.004
347.00	4.001
347.21	3.981
347.42	3.997
347.62	4.054
347.83	3.998
348.04	3.973
348.25	3.915
348.45	3.929
348.66	3.895
348.87	3.931
349.07	3.906
349.28	3.902
349.49	3.903
349.70	3.920
349.90	3.880
350.11	3.895
350.32	3.837
350.52	3.858
350.73	3.855
350.94	3.893
351.14	3.874
351.35	3.898
351.56	3.884
351.76	3.940
351.97	3.914
352.18	3.910
352.39	3.893
352.59	3.954
352.80	3.960
353.01	3.984
353.21	3.973
353.42	3.982
353.63	3.949
353.83	3.970
354.04	3.926
354.25	3.887
354.45	3.871
354.66	3.874
354.87	3.853
355.07	3.833
355.28	3.806
355.49	3.820
355.69	3.819
355.90	3.814
356.11	3.808
356.31	3.804
356.52	3.840
356.73	3.837
356.93	3.841
357.14	3.898
357.35	3.892
357.55	3.927
357.76	3.885
357.97	3.843
358.17	3.848
358.38	3.823
358.59	3.813
358.79	3.796
359.00	3.793
359.21	3.792
359.41	3.712
359.62	3.727
359.83	3.665
360.03	3.657
360.24	3.689
360.44	3.689
360.65	3.687
360.86	3.693
361.06	3.678
361.27	3.668
361.48	3.667
361.68	3.691
361.89	3.699
362.10	3.707
362.30	3.725
362.51	3.712
362.72	3.739
362.92	3.761
363.13	3.709
363.33	3.718
363.54	3.760
363.75	3.766
363.95	3.749
364.16	3.748
364.37	3.798
364.57	3.796
364.78	3.790
364.98	3.746
365.19	3.708
365.40	3.789
365.60	3.770
365.81	3.772
366.02	3.765
366.22	3.750
366.43	3.730
366.63	3.686
366.84	3.676
367.05	3.690
367.25	3.702
367.46	3.695
367.66	3.686
367.87	3.727
368.08	3.699
368.28	3.710
368.49	3.731
368.69	3.741
368.90	3.760
369.11	3.765
369.31	3.749
369.52	3.770
369.72	3.793
369.93	3.766
370.14	3.756
370.34	3.735
370.55	3.723
370.75	3.734
370.96	3.702
371.17	3.710
371.37	3.693
371.58	3.711
371.78	3.689
371.99	3.701
372.20	3.701
372.40	3.667
372.61	3.704
372.81	3.711
373.02	3.704
373.23	3.717
373.43	3.707
373.64	3.712
373.84	3.695
374.05	3.731
374.25	3.725
374.46	3.703
374.67	3.730
374.87	3.735
375.08	3.713
375.28	3.693
375.49	3.693
375.69	3.678
375.90	3.686
376.11	3.683
376.31	3.648
376.52	3.643
376.72	3.667
376.93	3.657
377.13	3.642
377.34	3.652
377.55	3.666
377.75	3.673
377.96	3.654
378.16	3.651
378.37	3.672
378.57	3.683
378.78	3.707
378.98	3.686
379.19	3.703
379.40	3.688
379.60	3.669
379.81	3.680
380.01	3.671
380.22	3.668
380.42	3.664
380.63	3.627
380.83	3.599
381.04	3.560
381.24	3.561
381.45	3.546
381.66	3.552
381.86	3.558
382.07	3.537
382.27	3.547
382.48	3.560
382.68	3.564
382.89	3.589
383.09	3.625
383.30	3.621
383.50	3.636
383.71	3.611
383.91	3.624
384.12	3.629
384.32	3.621
384.53	3.619
384.73	3.629
384.94	3.626
385.15	3.628
385.35	3.608
385.56	3.634
385.76	3.624
385.97	3.648
386.17	3.640
386.38	3.645
386.58	3.650
386.79	3.658
386.99	3.630
387.20	3.621
387.40	3.595
387.61	3.590
387.81	3.563
388.02	3.554
388.22	3.540
388.43	3.520
388.63	3.513
388.84	3.552
389.04	3.555
389.25	3.581
389.45	3.575
389.66	3.593
389.86	3.612
390.07	3.623
390.27	3.625
390.48	3.629
390.68	3.663
390.89	3.673
391.09	3.653
391.30	3.624
391.50	3.636
391.71	3.669
391.91	3.670
392.12	3.666
392.32	3.654
392.53	3.660
392.73	3.657
392.94	3.621
393.14	3.619
393.35	3.594
393.55	3.603
393.75	3.584
393.96	3.553
394.16	3.535
394.37	3.527
394.57	3.543
394.78	3.556
394.98	3.559
395.19	3.552
395.39	3.527
395.60	3.536
395.80	3.538
396.01	3.529
396.21	3.534
396.42	3.523
396.62	3.506
396.83	3.484
397.03	3.463
397.23	3.443
397.44	3.445
397.64	3.466
397.85	3.471
398.05	3.475
398.26	3.468
398.46	3.450
398.67	3.477
398.87	3.483
399.08	3.507
399.28	3.528
399.48	3.526
399.69	3.522
399.89	3.509
400.10	3.520
400.30	3.503
400.51	3.511
400.71	3.536
400.92	3.537
401.12	3.547
401.32	3.530
401.53	3.497
401.73	3.503
401.94	3.529
402.14	3.533
402.35	3.527
402.55	3.536
402.75	3.552
402.96	3.560
403.16	3.582
403.37	3.570
403.57	3.591
403.78	3.604
403.98	3.610
404.18	3.597
404.39	3.580
404.59	3.581
404.80	3.588
405.00	3.565
405.21	3.571
405.41	3.542
405.61	3.536
405.82	3.535
406.02	3.531
406.23	3.546
406.43	3.555
406.63	3.571
406.84	3.560
407.04	3.565
407.25	3.575
407.45	3.573
407.65	3.589
407.86	3.598
408.06	3.570
408.27	3.579
408.47	3.567
408.67	3.557
408.88	3.549
409.08	3.554
409.29	3.546
409.49	3.564
409.69	3.552
409.90	3.544
410.10	3.543
410.31	3.546
410.51	3.548
410.71	3.537
410.92	3.524
411.12	3.543
411.33	3.546
411.53	3.543
411.73	3.512
411.94	3.518
412.14	3.495
412.34	3.515
412.55	3.527
412.75	3.519
412.96	3.532
413.16	3.537
413.36	3.525
413.57	3.528
413.77	3.528
413.97	3.576
414.18	3.577
414.38	3.588
414.59	3.570
414.79	3.547
414.99	3.536
415.20	3.534
415.40	3.546
415.60	3.543
415.81	3.528
416.01	3.522
416.21	3.502
416.42	3.507
416.62	3.515
416.83	3.488
417.03	3.491
417.23	3.483
417.44	3.472
417.64	3.469
417.84	3.464
418.05	3.472
418.25	3.478
418.45	3.475
418.66	3.463
418.86	3.440
419.06	3.460
419.27	3.458
419.47	3.474
419.67	3.472
419.88	3.467
420.08	3.462
420.28	3.454
420.49	3.449
420.69	3.431
420.89	3.432
421.10	3.440
421.30	3.436
421.50	3.440
421.71	3.434
421.91	3.436
422.11	3.446
422.32	3.452
422.52	3.450
422.72	3.465
422.93	3.495
423.13	3.508
423.33	3.510
423.54	3.511
423.74	3.491
423.94	3.496
424.15	3.492
424.35	3.487
424.55	3.496
424.76	3.511
424.96	3.497
425.16	3.480
425.36	3.465
425.57	3.459
425.77	3.457
425.97	3.487
426.18	3.495
426.38	3.503
426.58	3.506
426.79	3.510
426.99	3.494
427.19	3.500
427.39	3.517
427.60	3.531
427.80	3.558
428.00	3.599
428.21	3.601
428.41	3.606
428.61	3.604
428.82	3.590
429.02	3.594
429.22	3.612
429.42	3.610
429.63	3.591
429.83	3.583
430.03	3.595
430.24	3.561
430.44	3.574
430.64	3.574
430.84	3.581
431.05	3.595
431.25	3.579
431.45	3.567
431.65	3.556
431.86	3.557
432.06	3.563
432.26	3.546
432.47	3.552
432.67	3.528
432.87	3.523
433.07	3.531
433.28	3.538
433.48	3.530
433.68	3.528
433.88	3.543
434.09	3.559
434.29	3.543
434.49	3.543
434.69	3.538
434.90	3.553
435.10	3.541
435.30	3.551
435.51	3.558
435.71	3.566
435.91	3.573
436.11	3.575
436.32	3.559
436.52	3.586
436.72	3.588
436.92	3.592
437.13	3.589
437.33	3.598
437.53	3.572
437.73	3.549
437.93	3.540
438.14	3.544
438.34	3.531
438.54	3.536
438.74	3.529
438.95	3.516
439.15	3.523
439.35	3.516
439.55	3.501
439.76	3.510
439.96	3.532
440.16	3.548
440.36	3.544
440.56	3.539
440.77	3.531
440.97	3.527
441.17	3.536
441.37	3.537
441.58	3.543
441.78	3.579
441.98	3.591
442.18	3.581
442.38	3.570
442.59	3.579
442.79	3.590
442.99	3.616
443.19	3.617
443.40	3.621
443.60	3.628
443.80	3.624
444.00	3.588
444.20	3.568
444.41	3.550
444.61	3.549
444.81	3.553
445.01	3.557
445.21	3.538
445.42	3.532
445.62	3.532
445.82	3.514
446.02	3.514
446.22	3.521
446.43	3.518
446.63	3.521
446.83	3.529
447.03	3.530
447.23	3.537
447.44	3.547
447.64	3.560
447.84	3.565
448.04	3.567
448.24	3.581
448.44	3.589
448.65	3.607
448.85	3.627
449.05	3.634
449.25	3.625
449.45	3.632
449.65	3.636
449.86	3.649
450.06	3.639
450.26	3.659
450.46	3.656
450.66	3.651
450.87	3.653
451.07	3.666
451.27	3.649
451.47	3.656
451.67	3.645
451.87	3.637
452.08	3.626
452.28	3.628
452.48	3.620
452.68	3.625
452.88	3.644
453.08	3.642
453.28	3.621
453.49	3.633
453.69	3.635
453.89	3.630
454.09	3.636
454.29	3.648
454.49	3.670
454.70	3.678
454.90	3.668
455.10	3.659
455.30	3.643
455.50	3.659
455.70	3.659
455.90	3.660
456.11	3.655
456.31	3.667
456.51	3.649
456.71	3.629
456.91	3.639
457.11	3.652
457.31	3.653
457.51	3.675
457.72	3.663
457.92	3.662
458.12	3.646
458.32	3.651
458.52	3.638
458.72	3.651
458.92	3.635
459.12	3.626
459.33	3.611
459.53	3.619
459.73	3.615
459.93	3.617
460.13	3.621
460.33	3.639
460.53	3.644
460.73	3.643
460.93	3.642
461.14	3.655
461.34	3.659
461.54	3.679
461.74	3.673
461.94	3.679
462.14	3.695
462.34	3.698
462.54	3.695
462.74	3.689
462.95	3.697
463.15	3.702
463.35	3.707
463.55	3.717
463.75	3.714
463.95	3.724
464.15	3.733
464.35	3.729
464.55	3.723
464.75	3.717
464.95	3.737
465.16	3.743
465.36	3.740
465.56	3.743
465.76	3.746
465.96	3.744
466.16	3.749
466.36	3.739
466.56	3.726
466.76	3.731
466.96	3.743
467.16	3.734
467.36	3.722
467.57	3.729
467.77	3.736
467.97	3.735
468.17	3.750
468.37	3.735
468.57	3.748
468.77	3.764
468.97	3.770
469.17	3.761
469.37	3.761
469.57	3.770
469.77	3.773
469.97	3.769
470.17	3.762
470.37	3.756
470.57	3.769
470.78	3.761
470.98	3.774
471.18	3.781
471.38	3.792
471.58	3.806
471.78	3.808
471.98	3.811
472.18	3.819
472.38	3.822
472.58	3.829
472.78	3.844
472.98	3.853
473.18	3.847
473.38	3.846
473.58	3.857
473.78	3.856
473.98	3.865
474.18	3.867
474.38	3.866
474.58	3.875
474.78	3.880
474.98	3.868
475.18	3.874
475.38	3.875
475.58	3.871
475.79	3.858
475.99	3.850
476.19	3.847
476.39	3.839
476.59	3.837
476.79	3.844
476.99	3.837
477.19	3.837
477.39	3.826
477.59	3.821
477.79	3.817
477.99	3.816
478.19	3.819
478.39	3.825
478.59	3.831
478.79	3.840
478.99	3.839
479.19	3.837
479.39	3.848
479.59	3.870
479.79	3.882
479.99	3.899
480.19	3.907
480.39	3.907
480.59	3.907
480.79	3.903
480.99	3.904
481.19	3.906
481.39	3.911
481.59	3.903
481.79	3.900
481.99	3.901
482.19	3.891
482.39	3.893
482.59	3.895
482.79	3.877
482.99	3.871
483.19	3.890
483.39	3.936
483.59	3.970
483.79	3.971
483.99	3.952
484.19	3.932
484.39	3.929
484.58	3.925
484.78	3.926
484.98	3.932
485.18	3.938
485.38	3.933
485.58	3.893
485.78	3.850
485.98	3.835
486.18	3.847
486.38	3.866
486.58	3.881
486.78	3.879
486.98	3.874
487.18	3.881
487.38	3.884
487.58	3.881
487.78	3.882
487.98	3.891
488.18	3.897
488.38	3.899
488.58	3.897
488.78	3.898
488.98	3.906
489.18	3.916
489.37	3.913
489.57	3.922
489.77	3.930
489.97	3.944
490.17	3.945
490.37	3.945
490.57	3.944
490.77	3.942
490.97	3.934
491.17	3.934
491.37	3.933
491.57	3.948
491.77	3.949
491.97	3.948
492.17	3.947
492.37	3.949
492.56	3.957
492.76	3.963
492.96	3.976
493.16	3.989
493.36	4.002
493.56	4.016
493.76	4.013
493.96	4.021
494.16	4.027
494.36	4.030
494.56	4.042
494.76	4.051
494.95	4.053
495.15	4.062
495.35	4.064
495.55	4.070
495.75	4.069
495.95	4.080
496.15	4.087
496.35	4.096
496.55	4.098
496.75	4.101
496.95	4.104
497.14	4.119
497.34	4.113
497.54	4.123
497.74	4.129
497.94	4.141
498.14	4.139
498.34	4.145
498.54	4.151
498.74	4.160
498.93	4.174
499.13	4.174
499.33	4.179
499.53	4.194
499.73	4.202
499.93	4.203
500.13	4.204
500.33	4.218
500.53	4.214
500.72	4.220
500.92	4.225
501.12	4.214
501.32	4.214
501.52	4.213
501.72	4.214
501.92	4.212
502.12	4.210
502.31	4.218
502.51	4.219
502.71	4.227
502.91	4.227
503.11	4.237
503.31	4.244
503.51	4.249
503.70	4.248
503.90	4.255
504.10	4.269
504.30	4.269
504.50	4.263
504.70	4.276
504.90	4.272
505.09	4.281
505.29	4.278
505.49	4.283
505.69	4.291
505.89	4.300
506.09	4.294
506.29	4.285
506.48	4.295
506.68	4.306
506.88	4.297
507.08	4.310
507.28	4.317
507.48	4.320
507.67	4.324
507.87	4.324
508.07	4.339
508.27	4.350
508.47	4.348
508.67	4.356
508.86	4.369
509.06	4.374
509.26	4.376
509.46	4.371
509.66	4.381
509.85	4.385
510.05	4.393
510.25	4.383
510.45	4.386
510.65	4.396
510.85	4.398
511.04	4.389
511.24	4.402
511.44	4.408
511.64	4.412
511.84	4.414
512.03	4.410
512.23	4.412
512.43	4.422
512.63	4.433
512.83	4.442
513.02	4.451
513.22	4.467
513.42	4.475
513.62	4.483
513.82	4.496
514.01	4.511
514.21	4.531
514.41	4.544
514.61	4.558
514.81	4.557
515.00	4.552
515.20	4.556
515.40	4.560
515.60	4.552
515.80	4.557
515.99	4.556
516.19	4.544
516.39	4.551
516.59	4.550
516.78	4.553
516.98	4.557
517.18	4.554
517.38	4.559
517.58	4.554
517.77	4.565
517.97	4.555
518.17	4.553
518.37	4.569
518.56	4.568
518.76	4.572
518.96	4.568
519.16	4.572
519.36	4.584
519.55	4.580
519.75	4.588
519.95	4.584
520.15	4.594
520.34	4.607
520.54	4.606
520.74	4.624
520.94	4.638
521.13	4.650
521.33	4.656
521.53	4.660
521.73	4.676
521.92	4.683
522.12	4.708
522.32	4.719
522.52	4.723
522.71	4.733
522.91	4.741
523.11	4.736
523.31	4.734
523.50	4.738
523.70	4.750
523.90	4.749
524.09	4.751
524.29	4.748
524.49	4.754
524.69	4.759
524.88	4.760
525.08	4.746
525.28	4.743
525.48	4.743
525.67	4.743
525.87	4.739
526.07	4.741
526.26	4.746
526.46	4.753
526.66	4.757
526.86	4.761
527.05	4.765
527.25	4.776
527.45	4.778
527.64	4.779
527.84	4.784
528.04	4.790
528.24	4.804
528.43	4.811
528.63	4.815
528.83	4.817
529.02	4.817
529.22	4.817
529.42	4.814
529.62	4.819
529.81	4.825
530.01	4.825
530.21	4.830
530.40	4.828
530.60	4.827
530.80	4.827
530.99	4.827
531.19	4.839
531.39	4.854
531.58	4.860
531.78	4.871
531.98	4.887
532.18	4.900
532.37	4.911
532.57	4.913
532.77	4.920
532.96	4.923
533.16	4.932
533.36	4.936
533.55	4.939
533.75	4.950
533.95	4.962
534.14	4.966
534.34	4.983
534.54	4.988
534.73	5.004
534.93	5.016
535.13	5.029
535.32	5.032
535.52	5.043
535.72	5.053
535.91	5.057
536.11	5.054
536.31	5.055
536.50	5.053
536.70	5.062
536.90	5.068
537.09	5.083
537.29	5.094
537.48	5.113
537.68	5.125
537.88	5.134
538.07	5.145
538.27	5.164
538.47	5.183
538.66	5.196
538.86	5.215
539.06	5.220
539.25	5.221
539.45	5.235
539.65	5.244
539.84	5.259
540.04	5.268
540.23	5.290
540.43	5.279
540.63	5.276
540.82	5.275
541.02	5.268
541.22	5.280
541.41	5.284
541.61	5.283
541.80	5.286
542.00	5.281
542.20	5.277
542.39	5.274
542.59	5.284
542.79	5.292
542.98	5.303
543.18	5.313
543.37	5.319
543.57	5.325
543.77	5.341
543.96	5.344
544.16	5.352
544.35	5.369
544.55	5.389
544.75	5.394
544.94	5.407
545.14	5.420
545.33	5.436
545.53	5.452
545.73	5.460
545.92	5.462
546.12	5.483
546.31	5.499
546.51	5.514
546.71	5.517
546.90	5.534
547.10	5.545
547.29	5.555
547.49	5.572
547.69	5.574
547.88	5.590
548.08	5.602
548.27	5.606
548.47	5.611
548.66	5.606
548.86	5.620
549.06	5.634
549.25	5.648
549.45	5.661
549.64	5.658
549.84	5.678
550.03	5.691
550.23	5.708
550.43	5.722
550.62	5.746
550.82	5.785
551.01	5.790
551.21	5.795
551.40	5.801
551.60	5.811
551.80	5.822
551.99	5.824
552.19	5.825
552.38	5.824
552.58	5.830
552.77	5.830
552.97	5.829
553.16	5.822
553.36	5.827
553.56	5.846
553.75	5.855
553.95	5.862
554.14	5.861
554.34	5.885
554.53	5.911
554.73	5.929
554.92	5.938
555.12	5.952
555.31	5.978
555.51	6.005
555.70	6.005
555.90	6.017
556.10	6.034
556.29	6.047
556.49	6.043
556.68	6.046
556.88	6.052
557.07	6.060
557.27	6.076
557.46	6.089
557.66	6.090
557.85	6.112
558.05	6.116
558.24	6.126
558.44	6.146
558.63	6.157
558.83	6.165
559.02	6.185
559.22	6.206
559.41	6.211
559.61	6.217
559.80	6.229
560.00	6.218
560.19	6.227
560.39	6.227
560.58	6.245
560.78	6.251
560.97	6.258
561.17	6.272
561.36	6.274
561.56	6.269
561.75	6.277
561.95	6.293
562.14	6.305
562.34	6.310
562.53	6.335
562.73	6.337
562.92	6.357
563.12	6.371
563.31	6.356
563.51	6.359
563.70	6.382
563.90	6.398
564.09	6.395
564.29	6.411
564.48	6.425
564.68	6.431
564.87	6.441
565.07	6.450
565.26	6.460
565.45	6.474
565.65	6.493
565.84	6.498
566.04	6.501
566.23	6.518
566.43	6.525
566.62	6.530
566.82	6.531
567.01	6.525
567.21	6.523
567.40	6.524
567.60	6.541
567.79	6.538
567.98	6.555
568.18	6.572
568.37	6.581
568.57	6.588
568.76	6.602
568.96	6.611
569.15	6.632
569.35	6.653
569.54	6.666
569.73	6.666
569.93	6.686
570.12	6.689
570.32	6.693
570.51	6.703
570.71	6.720
570.90	6.744
571.09	6.755
571.29	6.779
571.48	6.780
571.68	6.796
571.87	6.819
572.07	6.827
572.26	6.838
572.45	6.866
572.65	6.880
572.84	6.894
573.04	6.895
573.23	6.909
573.43	6.926
573.62	6.941
573.81	6.959
574.01	6.963
574.20	6.969
574.40	6.973
574.59	6.964
574.78	6.960
574.98	6.972
575.17	6.984
575.37	7.007
575.56	7.011
575.75	7.025
575.95	7.034
576.14	7.045
576.34	7.050
576.53	7.065
576.72	7.081
576.92	7.100
577.11	7.106
577.31	7.124
577.50	7.114
577.69	7.126
577.89	7.138
578.08	7.144
578.28	7.171
578.47	7.195
578.66	7.215
578.86	7.238
579.05	7.261
579.24	7.287
579.44	7.298
579.63	7.324
579.83	7.338
580.02	7.363
580.21	7.379
580.41	7.382
580.60	7.407
580.79	7.417
580.99	7.427
581.18	7.440
581.38	7.436
581.57	7.457
581.76	7.463
581.96	7.483
582.15	7.485
582.34	7.497
582.54	7.508
582.73	7.518
582.92	7.530
583.12	7.535
583.31	7.545
583.50	7.552
583.70	7.552
583.89	7.570
584.08	7.571
584.28	7.585
584.47	7.591
584.66	7.623
584.86	7.628
585.05	7.647
585.24	7.673
585.44	7.682
585.63	7.710
585.82	7.733
586.02	7.749
586.21	7.765
586.40	7.772
586.60	7.793
586.79	7.790
586.98	7.793
587.18	7.800
587.37	7.798
587.56	7.803
587.76	7.813
587.95	7.836
588.14	7.832
588.34	7.839
588.53	7.856
588.72	7.855
588.92	7.876
589.11	7.916
589.30	7.930
589.50	7.944
589.69	7.971
589.88	7.990
590.07	7.993
590.27	8.011
590.46	8.003
590.65	8.016
590.85	8.040
591.04	8.032
591.23	8.040
591.43	8.049
591.62	8.081
591.81	8.079
592.00	8.076
592.20	8.072
592.39	8.103
592.58	8.147
592.78	8.158
592.97	8.164
593.16	8.198
593.35	8.196
593.55	8.200
593.74	8.201
593.93	8.231
594.13	8.251
594.32	8.277
594.51	8.292
594.70	8.292
594.90	8.298
595.09	8.307
595.28	8.305
595.47	8.332
595.67	8.355
595.86	8.354
596.05	8.362
596.24	8.376
596.44	8.380
596.63	8.375
596.82	8.373
597.02	8.391
597.21	8.404
597.40	8.430
597.59	8.419
597.79	8.412
597.98	8.422
598.17	8.428
598.36	8.429
598.56	8.444
598.75	8.447
598.94	8.481
599.13	8.500
599.32	8.522
599.52	8.510
599.71	8.544
599.90	8.562
600.09	8.597
600.29	8.611
600.48	8.640
600.67	8.651
600.86	8.682
601.06	8.693
601.25	8.717
601.44	8.722
601.63	8.771
601.82	8.774
602.02	8.791
602.21	8.797
602.40	8.828
602.59	8.828
602.79	8.837
602.98	8.850
603.17	8.858
603.36	8.854
603.55	8.856
603.75	8.847
603.94	8.848
604.13	8.850
604.32	8.849
604.51	8.836
604.71	8.845
604.90	8.859
605.09	8.870
605.28	8.869
605.47	8.881
605.67	8.897
605.86	8.918
606.05	8.940
606.24	8.962
606.43	8.983
606.63	9.001
606.82	9.012
607.01	9.030
607.20	9.033
607.39	9.055
607.59	9.056
607.78	9.086
607.97	9.086
608.16	9.091
608.35	9.115
608.54	9.129
608.74	9.135
608.93	9.152
609.12	9.152
609.31	9.166
609.50	9.192
609.69	9.213
609.89	9.201
610.08	9.217
610.27	9.238
610.46	9.246
610.65	9.274
610.84	9.298
611.04	9.320
611.23	9.334
611.42	9.353
611.61	9.351
611.80	9.361
611.99	9.384
612.19	9.402
612.38	9.415
612.57	9.418
612.76	9.419
612.95	9.440
613.14	9.444
613.33	9.472
613.53	9.494
613.72	9.528
613.91	9.527
614.10	9.549
614.29	9.561
614.48	9.588
614.67	9.628
614.86	9.641
615.06	9.657
615.25	9.685
615.44	9.701
615.63	9.708
615.82	9.707
616.01	9.750
616.20	9.764
616.39	9.779
616.59	9.786
616.78	9.807
616.97	9.830
617.16	9.832
617.35	9.856
617.54	9.863
617.73	9.896
617.92	9.917
618.12	9.913
618.31	9.918
618.50	9.925
618.69	9.945
618.88	9.944
619.07	9.946
619.26	9.962
619.45	9.977
619.64	10.003
619.83	9.988
620.03	10.003
620.22	10.031
620.41	10.070
620.60	10.087
620.79	10.098
620.98	10.102
621.17	10.123
621.36	10.138
621.55	10.158
621.74	10.164
621.93	10.206
622.12	10.217
622.32	10.237
622.51	10.226
622.70	10.244
622.89	10.265
623.08	10.280
623.27	10.291
623.46	10.303
623.65	10.289
623.84	10.304
624.03	10.324
624.22	10.346
624.41	10.350
624.60	10.373
624.79	10.392
624.99	10.399
625.18	10.418
625.37	10.435
625.56	10.452
625.75	10.486
625.94	10.492
626.13	10.502
626.32	10.506
626.51	10.513
626.70	10.519
626.89	10.513
627.08	10.532
627.27	10.549
627.46	10.556
627.65	10.574
627.84	10.562
628.03	10.571
628.22	10.585
628.41	10.610
628.60	10.636
628.79	10.659
628.98	10.680
629.17	10.673
629.37	10.688
629.56	10.716
629.75	10.725
629.94	10.762
630.13	10.790
630.32	10.782
630.51	10.796
630.70	10.804
630.89	10.816
631.08	10.860
631.27	10.898
631.46	10.937
631.65	10.946
631.84	10.963
632.03	10.963
632.22	10.977
632.41	11.005
632.60	11.041
632.79	11.061
632.98	11.089
633.17	11.074
633.36	11.096
633.55	11.094
633.74	11.112
633.93	11.125
634.12	11.159
634.31	11.170
634.50	11.182
634.69	11.168
634.88	11.183
635.07	11.192
635.26	11.216
635.45	11.221
635.64	11.229
635.83	11.245
636.02	11.257
636.21	11.280
636.40	11.302
636.59	11.308
636.78	11.320
636.96	11.345
637.15	11.347
637.34	11.352
637.53	11.370
637.72	11.384
637.91	11.384
638.10	11.410
638.29	11.429
638.48	11.432
638.67	11.442
638.86	11.475
639.05	11.498
639.24	11.526
639.43	11.561
639.62	11.551
639.81	11.561
640.00	11.575
640.19	11.595
640.38	11.617
640.57	11.645
640.76	11.668
640.95	11.668
641.14	11.667
641.32	11.697
641.51	11.704
641.70	11.730
641.89	11.767
642.08	11.810
642.27	11.814
642.46	11.812
642.65	11.817
642.84	11.843
643.03	11.876
643.22	11.882
643.41	11.892
643.60	11.920
643.79	11.966
643.98	11.968
644.16	11.970
644.35	11.973
644.54	11.991
644.73	12.027
644.92	12.055
645.11	12.044
645.30	12.066
645.49	12.068
645.68	12.057
645.87	12.041
646.06	12.065
646.24	12.087
646.43	12.123
646.62	12.109
646.81	12.128
647.00	12.141
647.19	12.174
647.38	12.175
647.57	12.198
647.76	12.234
647.95	12.260
648.13	12.262
648.32	12.290
648.51	12.307
648.70	12.320
648.89	12.331
649.08	12.325
649.27	12.331
649.46	12.366
649.65	12.375
649.83	12.379
650.02	12.381
650.21	12.407
650.40	12.406
650.59	12.405
650.78	12.454
650.97	12.462
651.16	12.489
651.34	12.514
651.53	12.511
651.72	12.513
651.91	12.509
652.10	12.509
652.29	12.519
652.48	12.543
652.66	12.573
652.85	12.579
653.04	12.599
653.23	12.616
653.42	12.632
653.61	12.652
653.80	12.681
653.98	12.692
654.17	12.725
654.36	12.743
654.55	12.744
654.74	12.757
654.93	12.786
655.11	12.779
655.30	12.780
655.49	12.797
655.68	12.818
655.87	12.855
656.06	12.887
656.24	12.911
656.43	12.932
656.62	12.956
656.81	12.964
657.00	12.976
657.19	13.009
657.37	13.028
657.56	13.039
657.75	13.016
657.94	13.023
658.13	13.054
658.31	13.054
658.50	13.064
658.69	13.072
658.88	13.062
659.07	13.053
659.26	13.051
659.44	13.067
659.63	13.072
659.82	13.127
660.01	13.121
660.20	13.121
660.38	13.162
660.57	13.175
660.76	13.193
660.95	13.245
661.14	13.268
661.32	13.286
661.51	13.299
661.70	13.330
661.89	13.346
662.08	13.383
662.26	13.398
662.45	13.395
662.64	13.411
662.83	13.428
663.01	13.417
663.20	13.442
663.39	13.470
663.58	13.489
663.77	13.502
663.95	13.506
664.14	13.510
664.33	13.554
664.52	13.552
664.70	13.565
664.89	13.604
665.08	13.620
665.27	13.648
665.45	13.667
665.64	13.699
665.83	13.702
666.02	13.725
666.20	13.737
666.39	13.756
666.58	13.785
666.77	13.796
666.95	13.778
667.14	13.812
667.33	13.821
667.52	13.830
667.70	13.850
667.89	13.862
668.08	13.868
668.27	13.875
668.45	13.868
668.64	13.897
668.83	13.913
669.02	13.926
669.20	13.916
669.39	13.913
669.58	13.936
669.77	13.940
669.95	13.957
670.14	13.976
670.33	14.014
670.51	14.039
670.70	14.041
670.89	14.055
671.08	14.088
671.26	14.135
671.45	14.154
671.64	14.176
671.82	14.200
672.01	14.224
672.20	14.242
672.39	14.248
672.57	14.269
672.76	14.291
672.95	14.327
673.13	14.328
673.32	14.332
673.51	14.363
673.70	14.350
673.88	14.353
674.07	14.374
674.26	14.402
674.44	14.407
674.63	14.420
674.82	14.439
675.00	14.433
675.19	14.466
675.38	14.477
675.56	14.501
675.75	14.549
675.94	14.566
676.12	14.565
676.31	14.583
676.50	14.592
676.69	14.595
676.87	14.642
677.06	14.659
677.25	14.674
677.43	14.713
677.62	14.710
677.81	14.722
677.99	14.734
678.18	14.753
678.37	14.756
678.55	14.776
678.74	14.791
678.93	14.793
679.11	14.786
679.30	14.783
679.48	14.765
679.67	14.758
679.86	14.788
680.04	14.825
680.23	14.844
680.42	14.853
680.60	14.870
680.79	14.900
680.98	14.904
681.16	14.942
681.35	14.981
681.54	14.995
681.72	15.012
681.91	15.018
682.10	15.051
682.28	15.059
682.47	15.075
682.65	15.092
682.84	15.088
683.03	15.109
683.21	15.126
683.40	15.103
683.59	15.128
683.77	15.151
683.96	15.156
684.14	15.157
684.33	15.175
684.52	15.210
684.70	15.229
684.89	15.246
685.07	15.236
685.26	15.263
685.45	15.314
685.63	15.339
685.82	15.381
686.00	15.404
686.19	15.418
686.38	15.423
686.56	15.421
686.75	15.449
686.93	15.476
687.12	15.510
687.31	15.513
687.49	15.532
687.68	15.540
687.86	15.516
688.05	15.530
688.24	15.533
688.42	15.540
688.61	15.545
688.79	15.545
688.98	15.560
689.17	15.572
689.35	15.595
689.54	15.596
689.72	15.600
689.91	15.629
690.09	15.642
690.28	15.651
690.47	15.655
690.65	15.691
690.84	15.711
691.02	15.726
691.21	15.704
691.39	15.715
691.58	15.744
691.76	15.770
691.95	15.802
692.14	15.834
692.32	15.845
692.51	15.914
692.69	15.937
692.88	15.952
693.06	15.935
693.25	16.009
693.43	16.033
693.62	16.025
693.81	16.033
693.99	16.041
694.18	16.021
694.36	16.010
694.55	15.994
694.73	16.004
694.92	15.996
695.10	16.000
695.29	16.012
695.47	16.011
695.66	16.029
695.84	16.063
696.03	16.081
696.21	16.137
696.40	16.186
696.59	16.228
696.77	16.227
696.96	16.263
697.14	16.308
697.33	16.333
697.51	16.367
697.70	16.387
697.88	16.395
698.07	16.415
698.25	16.365
698.44	16.354
698.62	16.339
698.81	16.370
698.99	16.392
699.18	16.384
699.36	16.364
699.55	16.348
699.73	16.334
699.92	16.328
700.10	16.317
700.29	16.366
700.47	16.380
700.66	16.398
700.84	16.399
701.03	16.391
701.21	16.419
701.40	16.436
701.58	16.464
701.77	16.493
701.95	16.544
702.13	16.557
702.32	16.550
702.50	16.598
702.69	16.616
702.87	16.635
703.06	16.680
703.24	16.689
703.43	16.706
703.61	16.733
703.80	16.770
703.98	16.754
704.17	16.791
704.35	16.809
704.54	16.814
704.72	16.841
704.90	16.847
705.09	16.852
705.27	16.919
705.46	16.955
705.64	16.954
705.83	16.948
706.01	16.977
706.20	17.017
706.38	17.025
706.56	17.066
706.75	17.081
706.93	17.101
707.12	17.114
707.30	17.141
707.49	17.167
707.67	17.175
707.86	17.206
708.04	17.241
708.22	17.231
708.41	17.259
708.59	17.267
708.78	17.290
708.96	17.311
709.14	17.341
709.33	17.326
709.51	17.300
709.70	17.349
709.88	17.392
710.07	17.397
710.25	17.442
710.43	17.455
710.62	17.466
710.80	17.465
710.99	17.509
711.17	17.499
711.35	17.515
711.54	17.542
711.72	17.537
711.91	17.551
712.09	17.554
712.27	17.544
712.46	17.563
712.64	17.565
712.83	17.588
713.01	17.594
713.19	17.606
713.38	17.630
713.56	17.652
713.75	17.677
713.93	17.683
714.11	17.678
714.30	17.687
714.48	17.710
714.66	17.746
714.85	17.747
715.03	17.754
715.22	17.748
715.40	17.749
715.58	17.791
715.77	17.809
715.95	17.834
716.13	17.853
716.32	17.854
716.50	17.845
716.68	17.844
716.87	17.895
717.05	17.879
717.24	17.947
717.42	17.965
717.60	17.941
717.79	17.932
717.97	17.920
718.15	17.960
718.34	17.988
718.52	18.057
718.70	18.040
718.89	18.032
719.07	18.008
719.25	18.000
719.44	18.009
719.62	18.046
719.80	18.085
719.99	18.101
720.17	18.142
720.35	18.194
720.54	18.163
720.72	18.190
720.90	18.204
721.09	18.296
721.27	18.308
721.45	18.313
721.64	18.312
721.82	18.313
722.00	18.362
722.19	18.367
722.37	18.351
722.55	18.405
722.74	18.459
722.92	18.478
723.10	18.496
723.28	18.550
723.47	18.606
723.65	18.676
723.83	18.741
724.02	18.712
724.20	18.726
724.38	18.743
724.57	18.733
724.75	18.760
724.93	18.766
725.11	18.757
725.30	18.763
725.48	18.777
725.66	18.746
725.85	18.707
726.03	18.726
726.21	18.735
726.39	18.749
726.58	18.800
726.76	18.772
726.94	18.786
727.13	18.773
727.31	18.789
727.49	18.834
727.67	18.891
727.86	18.932
728.04	18.992
728.22	18.963
728.40	19.018
728.59	19.014
728.77	19.032
728.95	19.050
729.13	19.084
729.32	19.058
729.50	19.002
729.68	18.985
729.86	18.992
730.05	18.974
730.23	19.028
730.41	18.977
730.59	18.958
730.78	18.973
730.96	18.971
731.14	18.987
731.32	19.051
731.51	19.046
731.69	19.067
731.87	19.085
732.05	19.131
732.24	19.143
732.42	19.193
732.60	19.230
732.78	19.271
732.97	19.289
733.15	19.303
733.33	19.307
733.51	19.338
733.69	19.315
733.88	19.286
734.06	19.257
734.24	19.237
734.42	19.218
734.60	19.220
734.79	19.212
734.97	19.251
735.15	19.254
735.33	19.255
735.52	19.295
735.70	19.319
735.88	19.367
736.06	19.406
736.24	19.451
736.43	19.517
736.61	19.542
736.79	19.570
736.97	19.548
737.15	19.583
737.34	19.560
737.52	19.522
737.70	19.570
737.88	19.606
738.06	19.602
738.24	19.659
738.43	19.625
738.61	19.639
738.79	19.655
738.97	19.729
739.15	19.751
739.33	19.788
739.52	19.840
739.70	19.814
739.88	19.794
740.06	19.789
740.24	19.765
740.42	19.775
740.61	19.766
740.79	19.797
740.97	19.775
741.15	19.844
741.33	19.880
741.51	19.899
741.70	19.981
741.88	20.063
742.06	20.099
742.24	20.140
742.42	20.184
742.60	20.242
742.78	20.215
742.97	20.225
743.15	20.178
743.33	20.256
743.51	20.246
743.69	20.263
743.87	20.231
744.05	20.263
744.24	20.273
744.42	20.326
744.60	20.304
744.78	20.323
744.96	20.338
745.14	20.387
745.32	20.309
745.50	20.372
745.69	20.341
745.87	20.342
746.05	20.390
746.23	20.371
746.41	20.369
746.59	20.393
746.77	20.465
746.95	20.493
747.13	20.426
747.32	20.457
747.50	20.432
747.68	20.465
747.86	20.513
748.04	20.522
748.22	20.553
748.40	20.534
748.58	20.592
748.76	20.531
748.94	20.553
749.13	20.668
749.31	20.689
749.49	20.739
749.67	20.765
749.85	20.796
750.03	20.778
750.21	20.725
750.39	20.766
750.57	20.753
750.75	20.780
750.93	20.758
751.11	20.722
751.30	20.712
751.48	20.743
751.66	20.713
751.84	20.653
752.02	20.650
752.20	20.735
752.38	20.759
752.56	20.784
752.74	20.847
752.92	20.875
753.10	20.948
753.28	20.994
753.46	20.934
753.64	20.920
753.82	20.952
754.00	20.935
754.18	20.950
754.37	20.948
754.55	20.976
754.73	20.960
754.91	21.038
755.09	20.986
755.27	21.036
755.45	21.102
755.63	21.139
755.81	21.196
755.99	21.208
756.17	21.210
756.35	21.217
756.53	21.215
756.71	21.255
756.89	21.224
757.07	21.242
757.25	21.205
757.43	21.206
757.61	21.257
757.79	21.273
757.97	21.322
758.15	21.413
758.33	21.484
758.51	21.527
758.69	21.498
758.87	21.515
759.05	21.560
759.23	21.557
759.41	21.578
759.59	21.626
759.77	21.598
759.95	21.637
760.13	21.588
760.31	21.524
760.49	21.547
760.67	21.622
760.85	21.631
761.03	21.643
761.21	21.691
761.39	21.730
761.57	21.731
761.75	21.791
761.93	21.809
762.11	21.835
762.29	21.883
762.47	21.941
762.65	21.899
762.83	21.909
763.01	21.934
763.19	21.964
763.37	21.996
763.55	22.062
763.73	22.103
763.91	22.137
764.09	22.170
764.27	22.184
764.45	22.120
764.63	22.126
764.81	22.136
764.99	22.118
765.16	22.106
765.34	22.080
765.52	22.025
765.70	21.987
765.88	21.960
766.06	21.929
766.24	21.916
766.42	21.922
766.60	21.945
766.78	21.946
766.96	21.968
767.14	21.964
767.32	21.993
767.50	21.983
767.68	22.004
767.86	22.019
768.03	22.081
768.21	22.120
768.39	22.130
768.57	22.140
768.75	22.177
768.93	22.228
769.11	22.259
769.29	22.248
769.47	22.298
769.65	22.303
769.83	22.323
770.01	22.340
770.19	22.342
770.36	22.425
770.54	22.486
770.72	22.487
770.90	22.449
771.08	22.492
771.26	22.534
771.44	22.578
771.62	22.615
771.80	22.609
771.98	22.521
772.15	22.492
772.33	22.474
772.51	22.408
772.69	22.392
772.87	22.433
773.05	22.394
773.23	22.390
773.41	22.426
773.58	22.417
773.76	22.485
773.94	22.528
774.12	22.550
774.30	22.565
774.48	22.568
774.66	22.552
774.84	22.490
775.01	22.526
775.19	22.560
775.37	22.541
775.55	22.602
775.73	22.591
775.91	22.606
776.09	22.747
776.26	22.725
776.44	22.758
776.62	22.803
776.80	22.808
776.98	22.835
777.16	22.883
777.34	22.936
777.51	22.894
777.69	22.916
777.87	22.953
778.05	22.895
778.23	22.987
778.41	22.981
778.58	23.007
778.76	23.082
778.94	23.054
779.12	23.033
779.30	22.979
779.48	23.042
779.65	23.043
779.83	23.026
780.01	23.009
780.19	23.009
780.37	23.058
780.55	23.128
780.72	23.158
780.90	23.272
781.08	23.284
781.26	23.402
781.44	23.411
781.61	23.452
781.79	23.501
781.97	23.522
782.15	23.496
782.33	23.498
782.50	23.425
782.68	23.493
782.86	23.433
783.04	23.447
783.22	23.404
783.39	23.354
783.57	23.346
783.75	23.379
783.93	23.378
784.11	23.452
784.28	23.242
784.46	23.314
784.64	23.335
784.82	23.409
784.99	23.468
785.17	23.435
785.35	23.539
785.53	23.571
785.71	23.541
785.88	23.518
786.06	23.442
786.24	23.722
786.42	23.796
786.59	23.711
786.77	23.683
786.95	23.644
787.13	23.687
787.30	23.771
787.48	23.772
787.66	23.834
787.84	23.893
788.01	23.957
788.19	24.018
788.37	23.998
788.55	23.979
788.72	24.014
788.90	24.006
789.08	24.080
789.26	24.006
789.43	24.046
789.61	24.090
789.79	24.089
789.97	24.110
790.14	24.089
790.32	24.063
790.50	24.135
790.68	24.173
790.85	24.212
791.03	24.220
791.21	24.259
791.38	24.241
791.56	24.214
791.74	24.250
791.92	24.181
792.09	24.174
792.27	24.136
792.45	24.110
792.62	23.991
792.80	23.934
792.98	23.823
793.16	23.756
793.33	23.738
793.51	23.746
793.69	23.785
793.86	23.751
794.04	23.743
794.22	23.773
794.39	23.897
794.57	24.012
794.75	24.111
794.93	24.303
795.10	24.379
795.28	24.436
795.46	24.463
795.63	24.430
795.81	24.606
795.99	24.606
796.16	24.719
796.34	24.645
796.52	24.636
796.69	24.778
796.87	24.724
797.05	24.782
797.22	24.771
797.40	24.850
797.58	24.855
797.75	24.847
797.93	24.869
798.11	24.870
798.28	24.877
798.46	24.814
798.64	24.674
798.81	24.662
798.99	24.652
799.17	24.645
799.34	24.569
799.52	24.610
799.70	24.585
799.87	24.707
800.05	24.669
800.22	24.619
800.40	24.643
800.58	24.719
800.75	24.814
800.93	24.840
801.11	24.883
801.28	24.970
801.46	24.918
801.63	24.980
801.81	24.896
801.99	24.955
802.16	25.040
802.34	25.194
802.52	25.237
802.69	25.127
802.87	25.101
803.04	25.106
803.22	25.051
803.40	25.071
803.57	25.061
803.75	25.025
803.93	25.022
804.10	25.032
804.28	24.978
804.45	24.937
804.63	25.055
804.81	25.062
804.98	25.134
805.16	25.186
805.33	25.203
805.51	25.303
805.68	25.406
805.86	25.437
806.04	25.368
806.21	25.392
806.39	25.417
806.56	25.380
806.74	25.352
806.92	25.343
807.09	25.304
807.27	25.404
807.44	25.304
807.62	25.311
807.79	25.371
807.97	25.468
808.15	25.465
808.32	25.406
808.50	25.360
808.67	25.413
808.85	25.457
809.02	25.421
809.20	25.436
809.38	25.529
809.55	25.516
809.73	25.441
809.90	25.426
810.08	25.494
810.25	25.575
810.43	25.630
810.60	25.722
810.78	25.756
810.95	25.795
811.13	25.802
811.31	25.773
811.48	25.829
811.66	25.842
811.83	25.896
812.01	25.812
812.18	25.728
812.36	25.643
812.53	25.601
812.71	25.526
812.88	25.611
813.06	25.586
813.23	25.514
813.41	25.660
813.58	25.773
813.76	25.747
813.93	25.769
814.11	25.744
814.28	25.912
814.46	25.876
814.63	25.975
814.81	25.942
814.98	25.973
815.16	26.126
815.33	25.947
815.51	25.893
815.68	25.900
815.86	26.021
816.03	26.078
816.21	26.022
816.38	25.929
816.56	25.879
816.73	25.920
816.91	25.856
817.08	25.868
817.26	25.927
817.43	25.930
817.61	25.967
817.78	25.821
817.96	25.768
818.13	25.815
818.31	25.913
818.48	25.980
818.66	26.061
818.83	26.116
819.01	26.022
819.18	26.077
819.36	26.060
819.53	26.072
819.70	26.154
819.88	26.351
820.05	26.403
820.23	26.446
820.40	26.437
820.58	26.445
820.75	26.512
820.93	26.571
821.10	26.518
821.28	26.639
821.45	26.659
821.62	26.791
821.80	26.785
821.97	26.845
822.15	26.953
822.32	27.107
822.50	27.309
822.67	27.606
822.84	27.680
823.02	27.615
823.19	27.426
823.37	27.249
823.54	27.091
823.72	26.929
823.89	26.789
824.06	26.704
824.24	26.612
824.41	26.536
824.59	26.424
824.76	26.330
824.94	26.262
825.11	26.221
825.28	26.205
825.46	26.193
825.63	26.236
825.81	26.315
825.98	26.365
826.15	26.449
826.33	26.505
826.50	26.566
826.68	26.623
826.85	26.660
827.02	26.713
827.20	26.781
827.37	26.861
827.54	27.073
827.72	27.213
827.89	27.341
828.07	27.439
828.24	27.422
828.41	27.355
828.59	27.300
828.76	27.222
828.94	27.167
829.11	27.113
829.28	27.060
829.46	26.928
829.63	26.854
829.80	26.780
829.98	26.657
830.15	26.589
830.32	26.608
830.50	26.644
830.67	26.743
830.85	26.803
831.02	26.872
831.19	26.925
831.37	27.022
831.54	27.024
831.71	27.036
831.89	27.191
832.06	27.298
832.23	27.327
832.41	27.290
832.58	27.411
832.75	27.510
832.93	27.520
833.10	27.523
833.27	27.596
833.45	27.648
833.62	27.723
833.79	27.768
833.97	27.817
834.14	27.835
834.31	28.050
834.49	28.128
834.66	28.059
834.83	28.136
835.01	28.029
835.18	27.892
835.35	27.824
835.52	27.750
835.70	27.627
835.87	27.600
836.04	27.569
836.22	27.440
836.39	27.318
836.56	27.264
836.74	27.164
836.91	27.176
837.08	27.230
837.25	27.262
837.43	27.242
837.60	27.361
837.77	27.284
837.95	27.320
838.12	27.345
838.29	27.338
838.46	27.378
838.64	27.318
838.81	27.304
838.98	27.331
839.16	27.310
839.33	27.378
839.50	27.250
839.67	27.575
839.85	27.589
840.02	27.828
840.19	27.757
840.36	28.057
840.54	28.239
840.71	28.303
840.88	28.324
841.06	28.530
841.23	28.449
841.40	28.425
841.57	28.182
841.75	28.135
841.92	27.997
842.09	28.045
842.26	27.925
842.44	27.838
842.61	27.782
842.78	27.799
842.95	27.748
843.12	27.750
843.30	27.825
843.47	27.990
843.64	28.066
843.81	28.134
843.99	28.270
844.16	28.217
844.33	28.135
844.50	28.345
844.68	28.333
844.85	28.129
845.02	28.368
845.19	28.323
845.36	28.097
845.54	28.115
845.71	28.040
845.88	27.876
846.05	27.870
846.22	28.056
846.40	28.024
846.57	28.134
846.74	27.867
846.91	27.561
847.08	27.762
847.26	27.979
847.43	27.882
847.60	27.967
847.77	28.166
847.94	28.265
848.12	28.137
848.29	28.030
848.46	27.899
848.63	28.436
848.80	28.724
848.98	28.663
849.15	28.599
849.32	28.530
849.49	28.497
849.66	28.327
849.83	28.545
850.01	28.712
850.18	28.799
850.35	28.993
850.52	29.180
850.69	29.003
850.86	29.226
851.04	28.777
851.21	28.940
851.38	28.927
851.55	28.930
851.72	28.479
851.89	28.299
852.06	28.546
852.24	28.400
852.41	28.290
852.58	28.228
852.75	28.014
852.92	28.406
853.09	28.594
853.26	28.485
853.44	28.561
853.61	28.769
853.78	28.759
853.95	28.647
854.12	28.635
854.29	28.693
854.46	29.069
854.64	29.227
854.81	29.297
854.98	29.184
855.15	29.338
855.32	29.556
855.49	29.710
855.66	29.845
855.83	29.716
856.00	29.770
856.18	29.677
856.35	29.499
856.52	29.346
856.69	29.484
856.86	29.257
857.03	29.345
857.20	29.146
857.37	29.299
857.54	29.510
857.71	29.844
857.89	29.969
858.06	29.670
858.23	29.422
858.40	29.314
858.57	29.271
858.74	29.326
858.91	29.434
859.08	29.667
859.25	29.473
859.42	29.349
859.59	29.247
859.76	29.137
859.94	29.539
860.11	29.797
860.28	29.975
860.45	30.009
860.62	30.193
860.79	30.069
860.96	29.844
861.13	29.589
861.30	29.892
861.47	29.721
861.64	30.111
861.81	29.800
861.98	29.738
862.15	29.586
862.32	29.517
862.49	29.527
862.66	29.679
862.83	29.659
863.01	30.028
863.18	29.448
863.35	29.551
863.52	29.475
863.69	29.321
863.86	29.285
864.03	29.393
864.20	29.506
864.37	29.210
864.54	29.337
864.71	29.684
864.88	29.555
865.05	29.662
865.22	29.781
865.39	29.409
865.56	29.758
865.73	29.848
865.90	29.744
866.07	29.924
866.24	29.940
866.41	29.837
866.58	29.612
866.75	29.521
866.92	29.372
867.09	29.101
867.26	29.288
867.43	29.250
867.60	29.345
867.77	29.465
867.94	28.876
868.11	28.888
868.28	29.072
868.45	29.127
868.62	29.208
868.79	29.717
868.96	29.688
869.13	29.844
869.30	29.792
869.47	29.519
869.64	29.390
869.81	29.819
869.98	29.993
870.15	30.026
870.32	29.626
870.49	29.326
870.66	29.174
870.83	29.501
871.00	29.463
871.16	29.572
871.33	29.729
871.50	29.827
871.67	29.995
871.84	29.971
872.01	29.942
872.18	30.264
872.35	30.897
872.52	30.814
872.69	30.501
872.86	30.516
873.03	30.491
873.20	30.396
873.37	30.397
873.54	30.322
873.71	30.216
873.88	29.916
874.05	30.183
874.21	29.986
874.38	29.828
874.55	29.914
874.72	29.720
874.89	29.636
875.06	29.775
875.23	29.977
875.40	29.826
875.57	30.170
875.74	30.392
875.91	30.009
876.08	29.808
876.24	29.899
876.41	29.893
876.58	30.089
876.75	30.045
876.92	30.074
877.09	30.030
877.26	30.284
877.43	29.877
877.60	29.900
877.77	30.135
877.93	30.413
878.10	30.536
878.27	30.601
878.44	30.586
878.61	30.784
878.78	30.902
878.95	30.763
879.12	30.736
879.28	30.871
879.45	30.784
879.62	30.858
879.79	30.673
879.96	30.789
880.13	30.823
880.30	30.893
880.47	30.820
880.63	30.725
880.80	30.784
880.97	30.912
881.14	31.137
881.31	31.172
881.48	31.159
881.65	31.465
881.81	31.695
881.98	31.908
882.15	32.059
882.32	32.262
882.49	32.194
882.66	32.109
882.82	31.861
882.99	31.669
883.16	31.520
883.33	31.374
883.50	31.216
883.67	31.107
883.83	30.990
884.00	30.889
884.17	30.735
884.34	30.629
884.51	30.551
884.68	30.518
884.84	30.480
885.01	30.472
885.18	30.493
885.35	30.525
885.52	30.477
885.68	30.493
885.85	30.463
886.02	30.552
886.19	30.477
886.36	29.698
886.53	30.684
886.69	30.737
>>>>>End Spectral Data<<<<<
