OOIBase32 Version 2.0.6.5 Data File
++++++++++++++++++++++++++++++++++++
Date: 03-24-2011, 10:56:03
User: Valued Ocean Optics Customer
Spectrometer Serial Number: USB4C01507
Spectrometer Channel: Master
Integration Time (msec): 46
Spectra Averaged: 30
Boxcar Smoothing: 5
Correct for Electrical Dark: Enabled
Time Normalized: Disabled
Dual-beam Reference: Disabled
Reference Channel: Master
Temperature: Not acquired
Spectrometer Type: S4000
ADC Type: USB4000
Number of Pixels in File: 3648
Graph Title: 
>>>>>Begin Spectral Data<<<<<
179.17	1187.272
179.39	2942.752
179.60	170.743
179.82	-160.897
180.03	407.108
180.24	-45.574
180.46	-2.381
180.67	213.927
180.89	-94.296
181.10	35.073
181.31	219.262
181.53	-120.786
181.74	60.379
181.96	-273.350
182.17	184.858
182.39	18.218
182.60	76.115
182.81	15.650
183.03	54.755
183.24	-193.751
183.46	50.879
183.67	38.887
183.88	24.748
184.10	16.589
184.31	3.007
184.53	6.638
184.74	-3.911
184.96	-3.122
185.17	-1.621
185.38	5.024
185.60	12.794
185.81	11.333
186.03	18.605
186.24	22.000
186.45	35.757
186.67	42.866
186.88	46.684
187.10	49.223
187.31	43.566
187.52	42.929
187.74	35.912
187.95	33.161
188.17	22.530
188.38	15.910
188.59	18.581
188.81	0.957
189.02	11.206
189.24	6.922
189.45	6.569
189.66	10.478
189.88	3.088
190.09	2.081
190.30	-0.254
190.52	7.850
190.73	2.942
190.95	3.059
191.16	4.910
191.37	-3.467
191.59	-2.188
191.80	-2.688
192.02	-1.732
192.23	4.148
192.44	-1.410
192.66	6.165
192.87	-1.724
193.08	1.270
193.30	-3.577
193.51	4.623
193.73	13.560
193.94	16.831
194.15	22.988
194.37	23.961
194.58	21.091
194.79	20.674
195.01	19.668
195.22	23.010
195.44	21.914
195.65	19.960
195.86	13.822
196.08	6.024
196.29	3.588
196.50	-0.407
196.72	4.527
196.93	5.250
197.14	9.525
197.36	8.435
197.57	1.707
197.79	3.128
198.00	-0.845
198.21	2.182
198.43	7.393
198.64	7.200
198.85	6.656
199.07	5.001
199.28	2.473
199.49	-0.749
199.71	-5.289
199.92	1.011
200.13	-0.915
200.35	12.794
200.56	5.938
200.78	1.444
200.99	-2.004
201.20	0.266
201.42	0.158
201.63	1.401
201.84	4.996
202.06	12.949
202.27	9.853
202.48	13.225
202.70	5.286
202.91	8.231
203.12	3.365
203.34	8.054
203.55	11.403
203.76	7.440
203.98	11.695
204.19	9.958
204.40	7.741
204.62	10.770
204.83	7.217
205.04	8.556
205.26	7.859
205.47	12.371
205.68	8.952
205.90	4.724
206.11	5.227
206.32	-2.264
206.54	0.411
206.75	2.353
206.96	2.052
207.18	9.543
207.39	12.273
207.60	15.681
207.82	17.633
208.03	18.670
208.24	18.454
208.45	22.470
208.67	25.412
208.88	22.771
209.09	20.144
209.31	17.893
209.52	12.628
209.73	11.581
209.95	11.035
210.16	9.270
210.37	9.943
210.59	9.636
210.80	8.269
211.01	10.565
211.23	10.227
211.44	8.064
211.65	6.052
211.86	7.200
212.08	9.257
212.29	6.036
212.50	2.213
212.72	-0.826
212.93	-4.250
213.14	-2.187
213.36	-2.945
213.57	-0.450
213.78	3.609
213.99	5.316
214.21	8.259
214.42	8.436
214.63	10.857
214.85	11.571
215.06	12.916
215.27	17.121
215.49	14.723
215.70	11.319
215.91	9.334
216.12	5.612
216.34	8.018
216.55	4.645
216.76	4.651
216.98	1.113
217.19	2.610
217.40	5.880
217.61	7.278
217.83	9.004
218.04	9.851
218.25	10.811
218.47	11.230
218.68	9.848
218.89	9.819
219.10	8.664
219.32	8.941
219.53	8.091
219.74	6.642
219.95	4.150
220.17	2.853
220.38	4.218
220.59	3.676
220.81	3.929
221.02	4.330
221.23	5.708
221.44	4.057
221.66	5.260
221.87	5.350
222.08	4.448
222.29	5.567
222.51	5.998
222.72	5.563
222.93	6.229
223.14	6.621
223.36	6.624
223.57	6.105
223.78	7.079
223.99	6.993
224.21	7.873
224.42	7.515
224.63	6.823
224.84	6.021
225.06	6.639
225.27	6.674
225.48	6.496
225.69	5.991
225.91	5.797
226.12	5.132
226.33	5.606
226.54	5.509
226.76	5.613
226.97	5.706
227.18	5.788
227.39	5.614
227.61	5.648
227.82	5.634
228.03	5.702
228.24	5.689
228.46	5.797
228.67	5.658
228.88	5.469
229.09	5.414
229.31	5.376
229.52	5.384
229.73	5.452
229.94	5.333
230.16	5.221
230.37	5.267
230.58	5.065
230.79	5.162
231.00	5.351
231.22	5.589
231.43	5.866
231.64	5.857
231.85	5.721
232.07	5.140
232.28	5.162
232.49	5.251
232.70	4.820
232.91	5.328
233.13	5.085
233.34	4.873
233.55	5.419
233.76	5.293
233.98	5.434
234.19	5.442
234.40	5.882
234.61	6.135
234.82	6.086
235.04	5.918
235.25	5.892
235.46	5.918
235.67	5.986
235.88	5.610
236.10	5.739
236.31	5.610
236.52	5.932
236.73	5.775
236.94	5.398
237.16	5.094
237.37	5.366
237.58	4.711
237.79	4.778
238.01	4.448
238.22	3.990
238.43	4.178
238.64	4.236
238.85	4.024
239.06	3.931
239.28	3.767
239.49	4.016
239.70	4.058
239.91	4.248
240.12	4.316
240.34	4.324
240.55	4.495
240.76	4.434
240.97	4.430
241.18	4.364
241.40	4.222
241.61	4.251
241.82	4.224
242.03	4.309
242.24	4.309
242.45	4.261
242.67	4.303
242.88	4.266
243.09	4.057
243.30	3.927
243.51	4.039
243.73	4.110
243.94	4.117
244.15	3.997
244.36	3.854
244.57	4.005
244.78	4.046
245.00	3.942
245.21	3.996
245.42	4.071
245.63	4.037
245.84	3.967
246.05	3.977
246.27	3.996
246.48	4.018
246.69	4.010
246.90	3.992
247.11	3.906
247.32	3.967
247.54	3.964
247.75	3.966
247.96	4.002
248.17	4.024
248.38	4.034
248.59	4.014
248.81	4.015
249.02	3.960
249.23	3.805
249.44	3.884
249.65	3.722
249.86	3.663
250.07	3.741
250.29	3.781
250.50	3.573
250.71	3.568
250.92	3.488
251.13	3.514
251.34	3.652
251.55	3.754
251.77	3.825
251.98	3.898
252.19	3.924
252.40	3.875
252.61	3.801
252.82	3.859
253.03	3.855
253.25	3.892
253.46	3.731
253.67	3.633
253.88	3.510
254.09	3.359
254.30	3.273
254.51	3.247
254.73	3.060
254.94	3.163
255.15	3.291
255.36	3.153
255.57	3.079
255.78	3.140
255.99	3.142
256.20	3.234
256.42	3.256
256.63	3.323
256.84	3.358
257.05	3.504
257.26	3.484
257.47	3.333
257.68	3.500
257.89	3.506
258.10	3.577
258.32	3.508
258.53	3.473
258.74	3.447
258.95	3.457
259.16	3.401
259.37	3.387
259.58	3.297
259.79	3.396
260.00	3.315
260.22	3.323
260.43	3.351
260.64	3.294
260.85	3.297
261.06	3.323
261.27	3.266
261.48	3.288
261.69	3.219
261.90	3.367
262.12	3.220
262.33	3.325
262.54	3.332
262.75	3.220
262.96	3.370
263.17	3.345
263.38	3.277
263.59	3.306
263.80	3.330
264.01	3.369
264.22	3.283
264.44	3.255
264.65	3.081
264.86	3.172
265.07	3.115
265.28	3.086
265.49	3.143
265.70	3.223
265.91	3.227
266.12	3.236
266.33	3.194
266.54	3.215
266.75	3.224
266.97	3.471
267.18	3.359
267.39	3.399
267.60	3.401
267.81	3.300
268.02	3.243
268.23	3.262
268.44	3.233
268.65	3.238
268.86	3.222
269.07	3.332
269.28	3.130
269.49	3.281
269.70	3.298
269.92	3.157
270.13	3.176
270.34	3.211
270.55	3.137
270.76	3.126
270.97	3.122
271.18	3.156
271.39	3.024
271.60	3.040
271.81	2.968
272.02	2.928
272.23	3.042
272.44	3.131
272.65	3.105
272.86	3.114
273.07	3.154
273.28	3.267
273.49	3.259
273.71	3.293
273.92	3.334
274.13	3.279
274.34	3.206
274.55	3.199
274.76	3.044
274.97	3.031
275.18	2.918
275.39	2.900
275.60	2.838
275.81	2.985
276.02	2.928
276.23	2.937
276.44	3.018
276.65	3.175
276.86	3.155
277.07	3.194
277.28	3.171
277.49	3.320
277.70	3.198
277.91	3.181
278.12	3.061
278.33	3.089
278.54	3.029
278.75	3.038
278.96	2.912
279.17	2.907
279.39	2.831
279.60	2.908
279.81	2.824
280.02	2.845
280.23	2.779
280.44	2.670
280.65	2.612
280.86	2.669
281.07	2.677
281.28	2.829
281.49	2.833
281.70	2.948
281.91	2.851
282.12	2.872
282.33	2.875
282.54	2.856
282.75	2.945
282.96	3.071
283.17	3.042
283.38	2.978
283.59	2.841
283.80	2.698
284.01	2.581
284.22	2.580
284.43	2.662
284.64	2.634
284.85	2.701
285.06	2.653
285.27	2.638
285.48	2.601
285.69	2.586
285.90	2.575
286.11	2.722
286.32	2.744
286.53	2.747
286.74	2.664
286.95	2.677
287.16	2.665
287.37	2.638
287.58	2.562
287.79	2.573
288.00	2.603
288.21	2.586
288.42	2.496
288.63	2.617
288.84	2.649
289.05	2.686
289.26	2.692
289.47	2.660
289.68	2.678
289.89	2.683
290.10	2.678
290.31	2.624
290.51	2.678
290.72	2.673
290.93	2.651
291.14	2.590
291.35	2.576
291.56	2.589
291.77	2.524
291.98	2.545
292.19	2.592
292.40	2.602
292.61	2.583
292.82	2.599
293.03	2.648
293.24	2.581
293.45	2.676
293.66	2.676
293.87	2.678
294.08	2.695
294.29	2.735
294.50	2.624
294.71	2.614
294.92	2.653
295.13	2.570
295.34	2.492
295.55	2.505
295.76	2.425
295.96	2.397
296.17	2.404
296.38	2.485
296.59	2.446
296.80	2.456
297.01	2.468
297.22	2.495
297.43	2.524
297.64	2.558
297.85	2.505
298.06	2.518
298.27	2.566
298.48	2.538
298.69	2.462
298.90	2.428
299.11	2.495
299.32	2.478
299.53	2.420
299.73	2.424
299.94	2.462
300.15	2.562
300.36	2.630
300.57	2.567
300.78	2.599
300.99	2.596
301.20	2.586
301.41	2.621
301.62	2.651
301.83	2.654
302.04	2.615
302.25	2.604
302.45	2.559
302.66	2.516
302.87	2.524
303.08	2.462
303.29	2.455
303.50	2.565
303.71	2.544
303.92	2.484
304.13	2.486
304.34	2.524
304.55	2.503
304.76	2.496
304.96	2.460
305.17	2.424
305.38	2.448
305.59	2.501
305.80	2.388
306.01	2.348
306.22	2.349
306.43	2.345
306.64	2.304
306.85	2.324
307.06	2.337
307.26	2.292
307.47	2.300
307.68	2.370
307.89	2.314
308.10	2.310
308.31	2.308
308.52	2.354
308.73	2.368
308.94	2.384
309.14	2.325
309.35	2.328
309.56	2.357
309.77	2.331
309.98	2.301
310.19	2.332
310.40	2.355
310.61	2.340
310.82	2.303
311.02	2.278
311.23	2.249
311.44	2.274
311.65	2.240
311.86	2.265
312.07	2.259
312.28	2.170
312.49	2.136
312.69	2.126
312.90	2.089
313.11	2.071
313.32	2.115
313.53	2.124
313.74	2.079
313.95	2.061
314.16	2.024
314.36	2.052
314.57	2.149
314.78	2.193
314.99	2.161
315.20	2.241
315.41	2.237
315.62	2.156
315.82	2.144
316.03	2.140
316.24	2.199
316.45	2.237
316.66	2.220
316.87	2.228
317.08	2.194
317.28	2.256
317.49	2.136
317.70	2.168
317.91	2.179
318.12	2.202
318.33	2.241
318.54	2.203
318.74	2.128
318.95	2.157
319.16	2.142
319.37	2.178
319.58	2.189
319.79	2.241
319.99	2.277
320.20	2.295
320.41	2.288
320.62	2.261
320.83	2.266
321.04	2.288
321.24	2.269
321.45	2.311
321.66	2.258
321.87	2.232
322.08	2.239
322.29	2.168
322.49	2.151
322.70	2.125
322.91	2.165
323.12	2.190
323.33	2.238
323.54	2.195
323.74	2.145
323.95	2.155
324.16	2.116
324.37	2.132
324.58	2.184
324.79	2.193
324.99	2.209
325.20	2.239
325.41	2.223
325.62	2.247
325.83	2.268
326.03	2.233
326.24	2.201
326.45	2.221
326.66	2.175
326.87	2.100
327.07	2.100
327.28	2.049
327.49	2.000
327.70	2.011
327.91	1.965
328.11	1.956
328.32	2.005
328.53	2.067
328.74	2.086
328.95	2.109
329.15	2.185
329.36	2.221
329.57	2.259
329.78	2.249
329.99	2.199
330.19	2.128
330.40	2.167
330.61	2.166
330.82	2.078
331.03	1.998
331.23	2.028
331.44	1.991
331.65	1.925
331.86	1.978
332.07	1.978
332.27	1.998
332.48	2.028
332.69	2.027
332.90	1.975
333.10	2.036
333.31	2.112
333.52	2.080
333.73	2.112
333.94	2.095
334.14	2.043
334.35	2.010
334.56	2.041
334.77	2.029
334.97	2.023
335.18	1.995
335.39	2.026
335.60	2.052
335.80	2.029
336.01	1.954
336.22	1.954
336.43	1.960
336.64	1.964
336.84	1.907
337.05	1.905
337.26	1.903
337.47	1.968
337.67	1.949
337.88	1.890
338.09	1.914
338.30	1.981
338.50	2.058
338.71	2.082
338.92	2.106
339.13	2.125
339.33	2.144
339.54	2.132
339.75	2.103
339.96	2.062
340.16	2.034
340.37	2.067
340.58	2.027
340.79	2.004
340.99	2.022
341.20	1.958
341.41	1.934
341.62	1.945
341.82	1.928
342.03	1.930
342.24	1.924
342.44	1.954
342.65	1.890
342.86	1.877
343.07	1.837
343.27	1.833
343.48	1.872
343.69	1.846
343.90	1.850
344.10	1.855
344.31	1.852
344.52	1.890
344.72	1.883
344.93	1.885
345.14	1.916
345.35	1.930
345.55	1.893
345.76	1.906
345.97	1.957
346.18	1.921
346.38	1.926
346.59	1.919
346.80	1.915
347.00	1.886
347.21	1.874
347.42	1.897
347.62	1.883
347.83	1.845
348.04	1.825
348.25	1.822
348.45	1.829
348.66	1.809
348.87	1.855
349.07	1.813
349.28	1.864
349.49	1.895
349.70	1.899
349.90	1.901
350.11	1.917
350.32	1.875
350.52	1.894
350.73	1.902
350.94	1.928
351.14	1.912
351.35	1.943
351.56	1.914
351.76	1.923
351.97	1.867
352.18	1.845
352.39	1.860
352.59	1.933
352.80	1.895
353.01	1.912
353.21	1.876
353.42	1.857
353.63	1.809
353.83	1.825
354.04	1.807
354.25	1.829
354.45	1.831
354.66	1.837
354.87	1.791
355.07	1.804
355.28	1.786
355.49	1.801
355.69	1.826
355.90	1.863
356.11	1.851
356.31	1.879
356.52	1.884
356.73	1.910
356.93	1.917
357.14	1.940
357.35	1.927
357.55	1.948
357.76	1.963
357.97	1.914
358.17	1.937
358.38	1.925
358.59	1.910
358.79	1.906
359.00	1.882
359.21	1.871
359.41	1.841
359.62	1.842
359.83	1.825
360.03	1.794
360.24	1.836
360.44	1.791
360.65	1.787
360.86	1.768
361.06	1.776
361.27	1.789
361.48	1.790
361.68	1.836
361.89	1.865
362.10	1.866
362.30	1.897
362.51	1.905
362.72	1.929
362.92	1.950
363.13	1.947
363.33	1.931
363.54	1.945
363.75	1.938
363.95	1.931
364.16	1.908
364.37	1.922
364.57	1.902
364.78	1.880
364.98	1.879
365.19	1.843
365.40	1.865
365.60	1.855
365.81	1.863
366.02	1.862
366.22	1.822
366.43	1.811
366.63	1.779
366.84	1.762
367.05	1.750
367.25	1.715
367.46	1.727
367.66	1.737
367.87	1.773
368.08	1.770
368.28	1.782
368.49	1.767
368.69	1.757
368.90	1.778
369.11	1.787
369.31	1.786
369.52	1.838
369.72	1.841
369.93	1.801
370.14	1.775
370.34	1.742
370.55	1.736
370.75	1.763
370.96	1.769
371.17	1.778
371.37	1.779
371.58	1.783
371.78	1.753
371.99	1.771
372.20	1.783
372.40	1.751
372.61	1.754
372.81	1.773
373.02	1.784
373.23	1.782
373.43	1.769
373.64	1.761
373.84	1.763
374.05	1.783
374.25	1.775
374.46	1.761
374.67	1.802
374.87	1.827
375.08	1.812
375.28	1.778
375.49	1.772
375.69	1.772
375.90	1.791
376.11	1.794
376.31	1.782
376.52	1.762
376.72	1.759
376.93	1.743
377.13	1.731
377.34	1.723
377.55	1.764
377.75	1.765
377.96	1.728
378.16	1.715
378.37	1.720
378.57	1.729
378.78	1.726
378.98	1.738
379.19	1.750
379.40	1.725
379.60	1.682
379.81	1.676
380.01	1.679
380.22	1.688
380.42	1.693
380.63	1.695
380.83	1.677
381.04	1.679
381.24	1.697
381.45	1.679
381.66	1.697
381.86	1.743
382.07	1.729
382.27	1.733
382.48	1.758
382.68	1.755
382.89	1.752
383.09	1.771
383.30	1.755
383.50	1.727
383.71	1.727
383.91	1.728
384.12	1.714
384.32	1.708
384.53	1.696
384.73	1.685
384.94	1.685
385.15	1.674
385.35	1.671
385.56	1.694
385.76	1.685
385.97	1.710
386.17	1.707
386.38	1.709
386.58	1.711
386.79	1.760
386.99	1.764
387.20	1.762
387.40	1.742
387.61	1.739
387.81	1.719
388.02	1.736
388.22	1.714
388.43	1.714
388.63	1.714
388.84	1.728
389.04	1.699
389.25	1.702
389.45	1.715
389.66	1.728
389.86	1.724
390.07	1.737
390.27	1.730
390.48	1.729
390.68	1.740
390.89	1.770
391.09	1.788
391.30	1.788
391.50	1.790
391.71	1.791
391.91	1.799
392.12	1.814
392.32	1.824
392.53	1.853
392.73	1.858
392.94	1.840
393.14	1.826
393.35	1.806
393.55	1.799
393.75	1.793
393.96	1.787
394.16	1.776
394.37	1.744
394.57	1.751
394.78	1.728
394.98	1.712
395.19	1.711
395.39	1.699
395.60	1.685
395.80	1.688
396.01	1.688
396.21	1.678
396.42	1.667
396.62	1.674
396.83	1.658
397.03	1.686
397.23	1.684
397.44	1.696
397.64	1.698
397.85	1.715
398.05	1.724
398.26	1.716
398.46	1.730
398.67	1.731
398.87	1.721
399.08	1.714
399.28	1.691
399.48	1.696
399.69	1.676
399.89	1.681
400.10	1.675
400.30	1.658
400.51	1.660
400.71	1.653
400.92	1.673
401.12	1.699
401.32	1.695
401.53	1.684
401.73	1.694
401.94	1.737
402.14	1.745
402.35	1.736
402.55	1.741
402.75	1.744
402.96	1.737
403.16	1.743
403.37	1.732
403.57	1.749
403.78	1.774
403.98	1.780
404.18	1.767
404.39	1.739
404.59	1.751
404.80	1.747
405.00	1.735
405.21	1.750
405.41	1.743
405.61	1.749
405.82	1.762
406.02	1.752
406.23	1.748
406.43	1.743
406.63	1.793
406.84	1.797
407.04	1.809
407.25	1.819
407.45	1.819
407.65	1.804
407.86	1.800
408.06	1.768
408.27	1.744
408.47	1.742
408.67	1.735
408.88	1.689
409.08	1.684
409.29	1.677
409.49	1.710
409.69	1.692
409.90	1.714
410.10	1.712
410.31	1.724
410.51	1.756
410.71	1.751
410.92	1.738
411.12	1.737
411.33	1.737
411.53	1.738
411.73	1.697
411.94	1.725
412.14	1.711
412.34	1.727
412.55	1.739
412.75	1.714
412.96	1.727
413.16	1.768
413.36	1.768
413.57	1.768
413.77	1.754
413.97	1.777
414.18	1.769
414.38	1.774
414.59	1.767
414.79	1.751
414.99	1.747
415.20	1.737
415.40	1.720
415.60	1.715
415.81	1.710
416.01	1.726
416.21	1.716
416.42	1.707
416.62	1.718
416.83	1.704
417.03	1.692
417.23	1.690
417.44	1.690
417.64	1.684
417.84	1.692
418.05	1.704
418.25	1.695
418.45	1.695
418.66	1.693
418.86	1.676
419.06	1.701
419.27	1.699
419.47	1.709
419.67	1.703
419.88	1.698
420.08	1.691
420.28	1.670
420.49	1.678
420.69	1.676
420.89	1.684
421.10	1.691
421.30	1.667
421.50	1.676
421.71	1.675
421.91	1.689
422.11	1.693
422.32	1.710
422.52	1.709
422.72	1.720
422.93	1.729
423.13	1.734
423.33	1.735
423.54	1.741
423.74	1.737
423.94	1.743
424.15	1.735
424.35	1.739
424.55	1.731
424.76	1.752
424.96	1.741
425.16	1.738
425.36	1.725
425.57	1.719
425.77	1.722
425.97	1.729
426.18	1.736
426.38	1.732
426.58	1.724
426.79	1.730
426.99	1.719
427.19	1.728
427.39	1.725
427.60	1.732
427.80	1.744
428.00	1.768
428.21	1.780
428.41	1.777
428.61	1.786
428.82	1.783
429.02	1.774
429.22	1.788
429.42	1.775
429.63	1.783
429.83	1.787
430.03	1.777
430.24	1.755
430.44	1.744
430.64	1.728
430.84	1.729
431.05	1.740
431.25	1.748
431.45	1.731
431.65	1.729
431.86	1.724
432.06	1.719
432.26	1.727
432.47	1.737
432.67	1.743
432.87	1.752
433.07	1.754
433.28	1.766
433.48	1.766
433.68	1.763
433.88	1.771
434.09	1.773
434.29	1.772
434.49	1.771
434.69	1.758
434.90	1.755
435.10	1.738
435.30	1.744
435.51	1.743
435.71	1.744
435.91	1.763
436.11	1.753
436.32	1.749
436.52	1.748
436.72	1.769
436.92	1.771
437.13	1.779
437.33	1.804
437.53	1.789
437.73	1.774
437.93	1.774
438.14	1.762
438.34	1.766
438.54	1.779
438.74	1.793
438.95	1.770
439.15	1.779
439.35	1.776
439.55	1.770
439.76	1.772
439.96	1.789
440.16	1.800
440.36	1.804
440.56	1.811
440.77	1.798
440.97	1.779
441.17	1.787
441.37	1.786
441.58	1.787
441.78	1.795
441.98	1.807
442.18	1.793
442.38	1.775
442.59	1.776
442.79	1.766
442.99	1.781
443.19	1.779
443.40	1.784
443.60	1.785
443.80	1.789
444.00	1.781
444.20	1.762
444.41	1.756
444.61	1.754
444.81	1.759
445.01	1.758
445.21	1.756
445.42	1.780
445.62	1.776
445.82	1.769
446.02	1.759
446.22	1.753
446.43	1.761
446.63	1.764
446.83	1.769
447.03	1.773
447.23	1.778
447.44	1.784
447.64	1.773
447.84	1.769
448.04	1.770
448.24	1.783
448.44	1.790
448.65	1.790
448.85	1.788
449.05	1.802
449.25	1.793
449.45	1.803
449.65	1.812
449.86	1.821
450.06	1.831
450.26	1.840
450.46	1.837
450.66	1.836
450.87	1.837
451.07	1.852
451.27	1.826
451.47	1.829
451.67	1.834
451.87	1.821
452.08	1.818
452.28	1.824
452.48	1.823
452.68	1.835
452.88	1.842
453.08	1.844
453.28	1.832
453.49	1.842
453.69	1.855
453.89	1.854
454.09	1.860
454.29	1.856
454.49	1.862
454.70	1.865
454.90	1.860
455.10	1.847
455.30	1.831
455.50	1.852
455.70	1.848
455.90	1.833
456.11	1.818
456.31	1.821
456.51	1.827
456.71	1.829
456.91	1.831
457.11	1.827
457.31	1.841
457.51	1.857
457.72	1.840
457.92	1.840
458.12	1.836
458.32	1.840
458.52	1.838
458.72	1.850
458.92	1.827
459.12	1.821
459.33	1.816
459.53	1.819
459.73	1.828
459.93	1.831
460.13	1.842
460.33	1.855
460.53	1.860
460.73	1.853
460.93	1.847
461.14	1.863
461.34	1.875
461.54	1.884
461.74	1.885
461.94	1.880
462.14	1.898
462.34	1.898
462.54	1.892
462.74	1.887
462.95	1.899
463.15	1.907
463.35	1.896
463.55	1.892
463.75	1.892
463.95	1.889
464.15	1.900
464.35	1.892
464.55	1.886
464.75	1.890
464.95	1.903
465.16	1.908
465.36	1.898
465.56	1.915
465.76	1.920
465.96	1.922
466.16	1.937
466.36	1.930
466.56	1.918
466.76	1.920
466.96	1.931
467.16	1.927
467.36	1.916
467.57	1.924
467.77	1.918
467.97	1.918
468.17	1.922
468.37	1.911
468.57	1.912
468.77	1.921
468.97	1.921
469.17	1.911
469.37	1.912
469.57	1.912
469.77	1.910
469.97	1.908
470.17	1.913
470.37	1.905
470.57	1.909
470.78	1.902
470.98	1.912
471.18	1.915
471.38	1.913
471.58	1.926
471.78	1.943
471.98	1.949
472.18	1.957
472.38	1.956
472.58	1.971
472.78	1.981
472.98	1.993
473.18	2.002
473.38	1.998
473.58	2.010
473.78	1.991
473.98	1.993
474.18	1.999
474.38	1.992
474.58	2.002
474.78	1.995
474.98	1.999
475.18	2.001
475.38	1.993
475.58	2.005
475.79	1.995
475.99	2.001
476.19	1.996
476.39	1.988
476.59	1.996
476.79	1.991
476.99	1.996
477.19	1.987
477.39	1.982
477.59	1.979
477.79	1.973
477.99	1.970
478.19	1.974
478.39	1.980
478.59	1.985
478.79	1.984
478.99	1.990
479.19	1.996
479.39	2.002
479.59	2.024
479.79	2.024
479.99	2.037
480.19	2.042
480.39	2.041
480.59	2.036
480.79	2.046
480.99	2.050
481.19	2.041
481.39	2.037
481.59	2.036
481.79	2.031
481.99	2.037
482.19	2.036
482.39	2.042
482.59	2.041
482.79	2.048
482.99	2.048
483.19	2.067
483.39	2.098
483.59	2.122
483.79	2.124
483.99	2.116
484.19	2.108
484.39	2.107
484.58	2.109
484.78	2.112
484.98	2.111
485.18	2.114
485.38	2.107
485.58	2.084
485.78	2.057
485.98	2.056
486.18	2.060
486.38	2.077
486.58	2.082
486.78	2.081
486.98	2.089
487.18	2.100
487.38	2.105
487.58	2.105
487.78	2.109
487.98	2.116
488.18	2.112
488.38	2.113
488.58	2.110
488.78	2.115
488.98	2.118
489.18	2.118
489.37	2.116
489.57	2.118
489.77	2.134
489.97	2.138
490.17	2.138
490.37	2.142
490.57	2.149
490.77	2.152
490.97	2.153
491.17	2.154
491.37	2.160
491.57	2.164
491.77	2.163
491.97	2.161
492.17	2.166
492.37	2.173
492.56	2.173
492.76	2.180
492.96	2.189
493.16	2.196
493.36	2.207
493.56	2.209
493.76	2.217
493.96	2.229
494.16	2.222
494.36	2.227
494.56	2.230
494.76	2.240
494.95	2.242
495.15	2.231
495.35	2.224
495.55	2.226
495.75	2.228
495.95	2.222
496.15	2.234
496.35	2.245
496.55	2.246
496.75	2.254
496.95	2.254
497.14	2.259
497.34	2.271
497.54	2.285
497.74	2.292
497.94	2.297
498.14	2.304
498.34	2.300
498.54	2.304
498.74	2.313
498.93	2.322
499.13	2.322
499.33	2.328
499.53	2.329
499.73	2.333
499.93	2.341
500.13	2.348
500.33	2.353
500.53	2.353
500.72	2.368
500.92	2.363
501.12	2.361
501.32	2.371
501.52	2.372
501.72	2.383
501.92	2.380
502.12	2.364
502.31	2.372
502.51	2.370
502.71	2.386
502.91	2.386
503.11	2.391
503.31	2.398
503.51	2.401
503.70	2.410
503.90	2.417
504.10	2.428
504.30	2.441
504.50	2.442
504.70	2.453
504.90	2.449
505.09	2.451
505.29	2.461
505.49	2.463
505.69	2.471
505.89	2.480
506.09	2.472
506.29	2.465
506.48	2.466
506.68	2.470
506.88	2.472
507.08	2.478
507.28	2.481
507.48	2.484
507.67	2.482
507.87	2.485
508.07	2.481
508.27	2.499
508.47	2.508
508.67	2.520
508.86	2.526
509.06	2.529
509.26	2.533
509.46	2.543
509.66	2.546
509.85	2.555
510.05	2.569
510.25	2.573
510.45	2.571
510.65	2.578
510.85	2.578
511.04	2.583
511.24	2.588
511.44	2.591
511.64	2.589
511.84	2.599
512.03	2.604
512.23	2.604
512.43	2.609
512.63	2.616
512.83	2.617
513.02	2.630
513.22	2.631
513.42	2.647
513.62	2.654
513.82	2.668
514.01	2.677
514.21	2.685
514.41	2.696
514.61	2.702
514.81	2.709
515.00	2.715
515.20	2.713
515.40	2.722
515.60	2.715
515.80	2.729
515.99	2.722
516.19	2.716
516.39	2.727
516.59	2.736
516.78	2.744
516.98	2.751
517.18	2.749
517.38	2.758
517.58	2.756
517.77	2.763
517.97	2.755
518.17	2.763
518.37	2.778
518.56	2.779
518.76	2.777
518.96	2.779
519.16	2.779
519.36	2.792
519.55	2.799
519.75	2.810
519.95	2.813
520.15	2.816
520.34	2.827
520.54	2.830
520.74	2.843
520.94	2.855
521.13	2.867
521.33	2.874
521.53	2.876
521.73	2.884
521.92	2.886
522.12	2.902
522.32	2.914
522.52	2.925
522.71	2.932
522.91	2.931
523.11	2.937
523.31	2.933
523.50	2.940
523.70	2.958
523.90	2.959
524.09	2.965
524.29	2.967
524.49	2.982
524.69	2.985
524.88	2.989
525.08	2.997
525.28	2.997
525.48	3.006
525.67	3.011
525.87	3.012
526.07	3.011
526.26	3.020
526.46	3.032
526.66	3.038
526.86	3.041
527.05	3.048
527.25	3.055
527.45	3.065
527.64	3.071
527.84	3.088
528.04	3.099
528.24	3.113
528.43	3.124
528.63	3.132
528.83	3.132
529.02	3.135
529.22	3.140
529.42	3.143
529.62	3.147
529.81	3.150
530.01	3.146
530.21	3.146
530.40	3.145
530.60	3.144
530.80	3.143
530.99	3.147
531.19	3.155
531.39	3.157
531.58	3.159
531.78	3.169
531.98	3.186
532.18	3.199
532.37	3.214
532.57	3.221
532.77	3.235
532.96	3.236
533.16	3.246
533.36	3.256
533.55	3.263
533.75	3.274
533.95	3.281
534.14	3.279
534.34	3.293
534.54	3.300
534.73	3.315
534.93	3.316
535.13	3.330
535.32	3.336
535.52	3.334
535.72	3.343
535.91	3.356
536.11	3.350
536.31	3.360
536.50	3.363
536.70	3.367
536.90	3.373
537.09	3.389
537.29	3.395
537.48	3.408
537.68	3.424
537.88	3.431
538.07	3.431
538.27	3.447
538.47	3.462
538.66	3.465
538.86	3.474
539.06	3.481
539.25	3.486
539.45	3.497
539.65	3.510
539.84	3.525
540.04	3.541
540.23	3.556
540.43	3.573
540.63	3.576
540.82	3.582
541.02	3.594
541.22	3.603
541.41	3.611
541.61	3.612
541.80	3.612
542.00	3.610
542.20	3.608
542.39	3.614
542.59	3.612
542.79	3.616
542.98	3.627
543.18	3.625
543.37	3.635
543.57	3.632
543.77	3.641
543.96	3.645
544.16	3.651
544.35	3.664
544.55	3.664
544.75	3.679
544.94	3.688
545.14	3.692
545.33	3.716
545.53	3.720
545.73	3.728
545.92	3.741
546.12	3.749
546.31	3.763
546.51	3.767
546.71	3.777
546.90	3.782
547.10	3.792
547.29	3.802
547.49	3.806
547.69	3.808
547.88	3.821
548.08	3.817
548.27	3.830
548.47	3.838
548.66	3.848
548.86	3.856
549.06	3.867
549.25	3.880
549.45	3.897
549.64	3.896
549.84	3.918
550.03	3.931
550.23	3.953
550.43	3.965
550.62	3.976
550.82	3.989
551.01	4.004
551.21	4.006
551.40	4.018
551.60	4.037
551.80	4.060
551.99	4.067
552.19	4.077
552.38	4.090
552.58	4.093
552.77	4.101
552.97	4.117
553.16	4.114
553.36	4.131
553.56	4.144
553.75	4.134
553.95	4.139
554.14	4.136
554.34	4.147
554.53	4.161
554.73	4.182
554.92	4.196
555.12	4.208
555.31	4.234
555.51	4.258
555.70	4.258
555.90	4.269
556.10	4.274
556.29	4.284
556.49	4.282
556.68	4.293
556.88	4.295
557.07	4.292
557.27	4.301
557.46	4.296
557.66	4.297
557.85	4.331
558.05	4.340
558.24	4.358
558.44	4.381
558.63	4.390
558.83	4.378
559.02	4.398
559.22	4.424
559.41	4.428
559.61	4.439
559.80	4.450
560.00	4.432
560.19	4.443
560.39	4.450
560.58	4.446
560.78	4.467
560.97	4.496
561.17	4.503
561.36	4.511
561.56	4.514
561.75	4.523
561.95	4.531
562.14	4.543
562.34	4.559
562.53	4.561
562.73	4.570
562.92	4.581
563.12	4.581
563.31	4.570
563.51	4.576
563.70	4.591
563.90	4.607
564.09	4.612
564.29	4.633
564.48	4.630
564.68	4.639
564.87	4.657
565.07	4.660
565.26	4.679
565.45	4.710
565.65	4.714
565.84	4.731
566.04	4.737
566.23	4.742
566.43	4.743
566.62	4.750
566.82	4.762
567.01	4.764
567.21	4.777
567.40	4.779
567.60	4.786
567.79	4.788
567.98	4.800
568.18	4.814
568.37	4.832
568.57	4.839
568.76	4.861
568.96	4.877
569.15	4.890
569.35	4.909
569.54	4.925
569.73	4.926
569.93	4.938
570.12	4.931
570.32	4.929
570.51	4.935
570.71	4.947
570.90	4.954
571.09	4.966
571.29	4.979
571.48	4.986
571.68	4.986
571.87	4.997
572.07	5.010
572.26	5.028
572.45	5.059
572.65	5.065
572.84	5.074
573.04	5.082
573.23	5.092
573.43	5.104
573.62	5.117
573.81	5.142
574.01	5.150
574.20	5.159
574.40	5.173
574.59	5.171
574.78	5.190
574.98	5.209
575.17	5.217
575.37	5.217
575.56	5.219
575.75	5.225
575.95	5.231
576.14	5.245
576.34	5.246
576.53	5.246
576.72	5.252
576.92	5.256
577.11	5.261
577.31	5.277
577.50	5.289
577.69	5.314
577.89	5.321
578.08	5.330
578.28	5.343
578.47	5.361
578.66	5.386
578.86	5.407
579.05	5.431
579.24	5.434
579.44	5.440
579.63	5.444
579.83	5.444
580.02	5.448
580.21	5.462
580.41	5.464
580.60	5.476
580.79	5.482
580.99	5.476
581.18	5.475
581.38	5.490
581.57	5.511
581.76	5.522
581.96	5.547
582.15	5.569
582.34	5.576
582.54	5.592
582.73	5.614
582.92	5.615
583.12	5.626
583.31	5.639
583.50	5.651
583.70	5.658
583.89	5.671
584.08	5.663
584.28	5.682
584.47	5.696
584.66	5.707
584.86	5.713
585.05	5.729
585.24	5.739
585.44	5.744
585.63	5.757
585.82	5.775
586.02	5.791
586.21	5.811
586.40	5.809
586.60	5.820
586.79	5.831
586.98	5.838
587.18	5.845
587.37	5.868
587.56	5.873
587.76	5.886
587.95	5.892
588.14	5.901
588.34	5.895
588.53	5.910
588.72	5.920
588.92	5.936
589.11	5.962
589.30	5.976
589.50	5.989
589.69	6.006
589.88	6.010
590.07	6.021
590.27	6.034
590.46	6.060
590.65	6.067
590.85	6.066
591.04	6.063
591.23	6.072
591.43	6.082
591.62	6.086
591.81	6.090
592.00	6.101
592.20	6.104
592.39	6.122
592.58	6.128
592.78	6.144
592.97	6.163
593.16	6.180
593.35	6.192
593.55	6.194
593.74	6.206
593.93	6.240
594.13	6.258
594.32	6.277
594.51	6.289
594.70	6.306
594.90	6.302
595.09	6.312
595.28	6.317
595.47	6.318
595.67	6.339
595.86	6.349
596.05	6.358
596.24	6.364
596.44	6.371
596.63	6.359
596.82	6.356
597.02	6.365
597.21	6.377
597.40	6.397
597.59	6.404
597.79	6.393
597.98	6.399
598.17	6.400
598.36	6.399
598.56	6.411
598.75	6.423
598.94	6.441
599.13	6.466
599.32	6.481
599.52	6.485
599.71	6.507
599.90	6.531
600.09	6.556
600.29	6.563
600.48	6.581
600.67	6.587
600.86	6.622
601.06	6.642
601.25	6.652
601.44	6.650
601.63	6.671
601.82	6.685
602.02	6.716
602.21	6.719
602.40	6.741
602.59	6.758
602.79	6.774
602.98	6.792
603.17	6.796
603.36	6.810
603.55	6.825
603.75	6.821
603.94	6.820
604.13	6.816
604.32	6.818
604.51	6.819
604.71	6.829
604.90	6.838
605.09	6.835
605.28	6.832
605.47	6.843
605.67	6.855
605.86	6.872
606.05	6.887
606.24	6.907
606.43	6.930
606.63	6.950
606.82	6.954
607.01	6.970
607.20	6.983
607.39	7.022
607.59	7.032
607.78	7.054
607.97	7.058
608.16	7.057
608.35	7.069
608.54	7.091
608.74	7.094
608.93	7.119
609.12	7.116
609.31	7.122
609.50	7.127
609.69	7.138
609.89	7.144
610.08	7.160
610.27	7.174
610.46	7.184
610.65	7.182
610.84	7.191
611.04	7.195
611.23	7.206
611.42	7.216
611.61	7.214
611.80	7.219
611.99	7.223
612.19	7.239
612.38	7.255
612.57	7.270
612.76	7.288
612.95	7.309
613.14	7.336
613.33	7.360
613.53	7.372
613.72	7.397
613.91	7.393
614.10	7.407
614.29	7.412
614.48	7.429
614.67	7.436
614.86	7.443
615.06	7.451
615.25	7.438
615.44	7.436
615.63	7.455
615.82	7.465
616.01	7.491
616.20	7.502
616.39	7.512
616.59	7.503
616.78	7.511
616.97	7.533
617.16	7.544
617.35	7.570
617.54	7.588
617.73	7.595
617.92	7.611
618.12	7.608
618.31	7.614
618.50	7.624
618.69	7.653
618.88	7.670
619.07	7.671
619.26	7.689
619.45	7.715
619.64	7.740
619.83	7.754
620.03	7.761
620.22	7.794
620.41	7.816
620.60	7.828
620.79	7.843
620.98	7.840
621.17	7.857
621.36	7.866
621.55	7.874
621.74	7.874
621.93	7.882
622.12	7.907
622.32	7.929
622.51	7.935
622.70	7.955
622.89	7.957
623.08	7.972
623.27	7.986
623.46	7.995
623.65	7.995
623.84	8.011
624.03	8.035
624.22	8.040
624.41	8.039
624.60	8.054
624.79	8.080
624.99	8.088
625.18	8.106
625.37	8.116
625.56	8.133
625.75	8.144
625.94	8.149
626.13	8.162
626.32	8.181
626.51	8.193
626.70	8.199
626.89	8.195
627.08	8.214
627.27	8.229
627.46	8.227
627.65	8.246
627.84	8.256
628.03	8.272
628.22	8.283
628.41	8.283
628.60	8.297
628.79	8.310
628.98	8.319
629.17	8.309
629.37	8.329
629.56	8.366
629.75	8.365
629.94	8.382
630.13	8.387
630.32	8.385
630.51	8.396
630.70	8.403
630.89	8.418
631.08	8.459
631.27	8.494
631.46	8.506
631.65	8.510
631.84	8.527
632.03	8.513
632.22	8.547
632.41	8.569
632.60	8.581
632.79	8.593
632.98	8.604
633.17	8.596
633.36	8.617
633.55	8.608
633.74	8.617
633.93	8.633
634.12	8.663
634.31	8.661
634.50	8.670
634.69	8.686
634.88	8.706
635.07	8.711
635.26	8.709
635.45	8.712
635.64	8.734
635.83	8.741
636.02	8.734
636.21	8.747
636.40	8.753
636.59	8.749
636.78	8.747
636.96	8.770
637.15	8.779
637.34	8.796
637.53	8.796
637.72	8.804
637.91	8.812
638.10	8.828
638.29	8.864
638.48	8.896
638.67	8.894
638.86	8.931
639.05	8.934
639.24	8.958
639.43	8.968
639.62	9.000
639.81	9.020
640.00	9.032
640.19	9.062
640.38	9.065
640.57	9.069
640.76	9.115
640.95	9.120
641.14	9.146
641.32	9.167
641.51	9.182
641.70	9.186
641.89	9.215
642.08	9.243
642.27	9.237
642.46	9.241
642.65	9.244
642.84	9.256
643.03	9.278
643.22	9.267
643.41	9.276
643.60	9.311
643.79	9.331
643.98	9.332
644.16	9.357
644.35	9.360
644.54	9.362
644.73	9.396
644.92	9.403
645.11	9.394
645.30	9.407
645.49	9.419
645.68	9.395
645.87	9.403
646.06	9.410
646.24	9.408
646.43	9.434
646.62	9.448
646.81	9.455
647.00	9.460
647.19	9.463
647.38	9.473
647.57	9.472
647.76	9.512
647.95	9.524
648.13	9.533
648.32	9.534
648.51	9.548
648.70	9.544
648.89	9.555
649.08	9.587
649.27	9.618
649.46	9.627
649.65	9.629
649.83	9.625
650.02	9.618
650.21	9.633
650.40	9.655
650.59	9.671
650.78	9.708
650.97	9.723
651.16	9.725
651.34	9.731
651.53	9.740
651.72	9.772
651.91	9.785
652.10	9.808
652.29	9.817
652.48	9.823
652.66	9.831
652.85	9.836
653.04	9.843
653.23	9.833
653.42	9.849
653.61	9.871
653.80	9.873
653.98	9.891
654.17	9.912
654.36	9.935
654.55	9.950
654.74	9.950
654.93	9.981
655.11	10.010
655.30	10.038
655.49	10.068
655.68	10.070
655.87	10.112
656.06	10.117
656.24	10.141
656.43	10.147
656.62	10.145
656.81	10.177
657.00	10.179
657.19	10.173
657.37	10.195
657.56	10.180
657.75	10.127
657.94	10.127
658.13	10.133
658.31	10.130
658.50	10.141
658.69	10.161
658.88	10.160
659.07	10.159
659.26	10.162
659.44	10.175
659.63	10.199
659.82	10.278
660.01	10.269
660.20	10.292
660.38	10.317
660.57	10.344
660.76	10.350
660.95	10.382
661.14	10.409
661.32	10.431
661.51	10.456
661.70	10.480
661.89	10.506
662.08	10.542
662.26	10.552
662.45	10.558
662.64	10.535
662.83	10.586
663.01	10.581
663.20	10.594
663.39	10.621
663.58	10.619
663.77	10.605
663.95	10.618
664.14	10.635
664.33	10.649
664.52	10.667
664.70	10.671
664.89	10.673
665.08	10.705
665.27	10.721
665.45	10.700
665.64	10.714
665.83	10.750
666.02	10.762
666.20	10.743
666.39	10.757
666.58	10.770
666.77	10.807
666.95	10.787
667.14	10.783
667.33	10.783
667.52	10.832
667.70	10.825
667.89	10.830
668.08	10.836
668.27	10.860
668.45	10.874
668.64	10.881
668.83	10.877
669.02	10.902
669.20	10.908
669.39	10.937
669.58	10.928
669.77	10.957
669.95	10.974
670.14	10.979
670.33	10.995
670.51	11.003
670.70	11.018
670.89	11.054
671.08	11.075
671.26	11.121
671.45	11.116
671.64	11.145
671.82	11.151
672.01	11.167
672.20	11.182
672.39	11.205
672.57	11.236
672.76	11.252
672.95	11.258
673.13	11.270
673.32	11.256
673.51	11.267
673.70	11.283
673.88	11.309
674.07	11.339
674.26	11.361
674.44	11.394
674.63	11.384
674.82	11.383
675.00	11.397
675.19	11.409
675.38	11.439
675.56	11.464
675.75	11.479
675.94	11.489
676.12	11.455
676.31	11.456
676.50	11.431
676.69	11.456
676.87	11.494
677.06	11.491
677.25	11.511
677.43	11.529
677.62	11.536
677.81	11.577
677.99	11.586
678.18	11.615
678.37	11.599
678.55	11.625
678.74	11.633
678.93	11.632
679.11	11.661
679.30	11.662
679.48	11.671
679.67	11.705
679.86	11.684
680.04	11.701
680.23	11.703
680.42	11.749
680.60	11.753
680.79	11.762
680.98	11.779
681.16	11.767
681.35	11.793
681.54	11.763
681.72	11.765
681.91	11.762
682.10	11.789
682.28	11.790
682.47	11.799
682.65	11.820
682.84	11.836
683.03	11.823
683.21	11.870
683.40	11.865
683.59	11.917
683.77	11.927
683.96	11.943
684.14	11.945
684.33	11.990
684.52	12.007
684.70	11.991
684.89	11.995
685.07	12.012
685.26	12.002
685.45	12.030
685.63	12.017
685.82	12.035
686.00	12.072
686.19	12.096
686.38	12.108
686.56	12.125
686.75	12.174
686.93	12.182
687.12	12.202
687.31	12.220
687.49	12.227
687.68	12.257
687.86	12.266
688.05	12.267
688.24	12.266
688.42	12.274
688.61	12.251
688.79	12.258
688.98	12.267
689.17	12.282
689.35	12.276
689.54	12.274
689.72	12.268
689.91	12.266
690.09	12.280
690.28	12.299
690.47	12.289
690.65	12.299
690.84	12.317
691.02	12.351
691.21	12.341
691.39	12.391
691.58	12.417
691.76	12.444
691.95	12.459
692.14	12.492
692.32	12.496
692.51	12.548
692.69	12.593
692.88	12.568
693.06	12.568
693.25	12.602
693.43	12.586
693.62	12.625
693.81	12.610
693.99	12.653
694.18	12.631
694.36	12.629
694.55	12.626
694.73	12.624
694.92	12.679
695.10	12.644
695.29	12.686
695.47	12.704
695.66	12.685
695.84	12.764
696.03	12.758
696.21	12.793
696.40	12.806
696.59	12.854
696.77	12.865
696.96	12.877
697.14	12.915
697.33	12.921
697.51	12.948
697.70	12.964
697.88	12.978
698.07	12.997
698.25	12.985
698.44	13.029
698.62	13.013
698.81	13.032
698.99	13.048
699.18	13.077
699.36	13.068
699.55	13.055
699.73	13.064
699.92	13.031
700.10	13.021
700.29	13.037
700.47	13.026
700.66	13.037
700.84	13.048
701.03	13.040
701.21	13.031
701.40	13.036
701.58	13.056
701.77	13.055
701.95	13.103
702.13	13.109
702.32	13.139
702.50	13.169
702.69	13.162
702.87	13.161
703.06	13.199
703.24	13.218
703.43	13.271
703.61	13.296
703.80	13.315
703.98	13.282
704.17	13.325
704.35	13.300
704.54	13.311
704.72	13.338
704.90	13.376
705.09	13.378
705.27	13.430
705.46	13.419
705.64	13.419
705.83	13.455
706.01	13.494
706.20	13.531
706.38	13.595
706.56	13.576
706.75	13.586
706.93	13.579
707.12	13.592
707.30	13.611
707.49	13.648
707.67	13.710
707.86	13.724
708.04	13.769
708.22	13.753
708.41	13.747
708.59	13.784
708.78	13.797
708.96	13.819
709.14	13.845
709.33	13.823
709.51	13.819
709.70	13.798
709.88	13.820
710.07	13.807
710.25	13.845
710.43	13.843
710.62	13.874
710.80	13.886
710.99	13.918
711.17	13.914
711.35	13.963
711.54	13.965
711.72	13.987
711.91	14.012
712.09	14.024
712.27	14.001
712.46	14.031
712.64	14.029
712.83	14.040
713.01	14.057
713.19	14.067
713.38	14.055
713.56	14.100
713.75	14.115
713.93	14.102
714.11	14.113
714.30	14.132
714.48	14.143
714.66	14.162
714.85	14.164
715.03	14.154
715.22	14.143
715.40	14.157
715.58	14.148
715.77	14.166
715.95	14.181
716.13	14.199
716.32	14.187
716.50	14.160
716.68	14.177
716.87	14.208
717.05	14.200
717.24	14.219
717.42	14.216
717.60	14.215
717.79	14.204
717.97	14.224
718.15	14.230
718.34	14.307
718.52	14.378
718.70	14.390
718.89	14.378
719.07	14.377
719.25	14.416
719.44	14.475
719.62	14.483
719.80	14.528
719.99	14.522
720.17	14.563
720.35	14.552
720.54	14.493
720.72	14.494
720.90	14.543
721.09	14.595
721.27	14.614
721.45	14.574
721.64	14.616
721.82	14.600
722.00	14.648
722.19	14.642
722.37	14.648
722.55	14.736
722.74	14.779
722.92	14.789
723.10	14.793
723.28	14.826
723.47	14.906
723.65	14.939
723.83	14.975
724.02	14.919
724.20	14.919
724.38	14.926
724.57	14.920
724.75	14.893
724.93	14.889
725.11	14.932
725.30	14.911
725.48	14.920
725.66	14.924
725.85	14.932
726.03	14.977
726.21	15.056
726.39	15.092
726.58	15.135
726.76	15.176
726.94	15.210
727.13	15.199
727.31	15.246
727.49	15.245
727.67	15.249
727.86	15.259
728.04	15.265
728.22	15.217
728.40	15.255
728.59	15.236
728.77	15.227
728.95	15.235
729.13	15.259
729.32	15.243
729.50	15.238
729.68	15.260
729.86	15.254
730.05	15.278
730.23	15.293
730.41	15.254
730.59	15.273
730.78	15.322
730.96	15.355
731.14	15.397
731.32	15.421
731.51	15.427
731.69	15.432
731.87	15.439
732.05	15.452
732.24	15.498
732.42	15.545
732.60	15.544
732.78	15.541
732.97	15.511
733.15	15.506
733.33	15.523
733.51	15.528
733.69	15.528
733.88	15.552
734.06	15.568
734.24	15.523
734.42	15.490
734.60	15.527
734.79	15.530
734.97	15.593
735.15	15.615
735.33	15.624
735.52	15.638
735.70	15.663
735.88	15.676
736.06	15.696
736.24	15.757
736.43	15.801
736.61	15.827
736.79	15.835
736.97	15.816
737.15	15.806
737.34	15.821
737.52	15.839
737.70	15.866
737.88	15.913
738.06	15.917
738.24	15.994
738.43	16.030
738.61	16.039
738.79	16.062
738.97	16.089
739.15	16.086
739.33	16.086
739.52	16.124
739.70	16.095
739.88	16.102
740.06	16.121
740.24	16.058
740.42	16.031
740.61	16.000
740.79	16.042
740.97	16.022
741.15	16.072
741.33	16.092
741.51	16.056
741.70	16.105
741.88	16.154
742.06	16.157
742.24	16.209
742.42	16.230
742.60	16.295
742.78	16.281
742.97	16.321
743.15	16.277
743.33	16.336
743.51	16.386
743.69	16.408
743.87	16.384
744.05	16.410
744.24	16.411
744.42	16.436
744.60	16.443
744.78	16.476
744.96	16.510
745.14	16.603
745.32	16.591
745.50	16.609
745.69	16.589
745.87	16.564
746.05	16.575
746.23	16.615
746.41	16.659
746.59	16.623
746.77	16.583
746.95	16.547
747.13	16.515
747.32	16.501
747.50	16.561
747.68	16.627
747.86	16.721
748.04	16.785
748.22	16.802
748.40	16.801
748.58	16.869
748.76	16.918
748.94	16.967
749.13	16.980
749.31	17.040
749.49	17.037
749.67	17.053
749.85	17.065
750.03	17.027
750.21	16.981
750.39	17.013
750.57	16.992
750.75	17.020
750.93	17.032
751.11	17.091
751.30	17.058
751.48	17.057
751.66	17.032
751.84	16.993
752.02	17.040
752.20	17.107
752.38	17.128
752.56	17.154
752.74	17.133
752.92	17.129
753.10	17.145
753.28	17.190
753.46	17.182
753.64	17.176
753.82	17.209
754.00	17.181
754.18	17.133
754.37	17.065
754.55	17.080
754.73	17.107
754.91	17.168
755.09	17.137
755.27	17.107
755.45	17.105
755.63	17.168
755.81	17.152
755.99	17.133
756.17	17.165
756.35	17.224
756.53	17.278
756.71	17.309
756.89	17.310
757.07	17.334
757.25	17.338
757.43	17.371
757.61	17.300
757.79	17.359
757.97	17.410
758.15	17.460
758.33	17.518
758.51	17.548
758.69	17.527
758.87	17.517
759.05	17.531
759.23	17.540
759.41	17.603
759.59	17.685
759.77	17.627
759.95	17.615
760.13	17.610
760.31	17.579
760.49	17.586
760.67	17.634
760.85	17.651
761.03	17.674
761.21	17.749
761.39	17.730
761.57	17.769
761.75	17.841
761.93	17.870
762.11	17.863
762.29	17.839
762.47	17.844
762.65	17.825
762.83	17.806
763.01	17.823
763.19	17.816
763.37	17.873
763.55	17.902
763.73	17.942
763.91	18.018
764.09	18.027
764.27	18.091
764.45	18.082
764.63	18.103
764.81	18.129
764.99	18.151
765.16	18.132
765.34	18.134
765.52	18.123
765.70	18.102
765.88	18.097
766.06	18.125
766.24	18.119
766.42	18.118
766.60	18.141
766.78	18.116
766.96	18.120
767.14	18.161
767.32	18.166
767.50	18.152
767.68	18.185
767.86	18.186
768.03	18.198
768.21	18.206
768.39	18.191
768.57	18.161
768.75	18.253
768.93	18.292
769.11	18.346
769.29	18.361
769.47	18.379
769.65	18.397
769.83	18.471
770.01	18.574
770.19	18.620
770.36	18.714
770.54	18.781
770.72	18.744
770.90	18.737
771.08	18.740
771.26	18.717
771.44	18.777
771.62	18.795
771.80	18.753
771.98	18.638
772.15	18.636
772.33	18.615
772.51	18.631
772.69	18.686
772.87	18.718
773.05	18.731
773.23	18.770
773.41	18.774
773.58	18.732
773.76	18.785
773.94	18.780
774.12	18.790
774.30	18.831
774.48	18.767
774.66	18.721
774.84	18.638
775.01	18.649
775.19	18.670
775.37	18.689
775.55	18.709
775.73	18.680
775.91	18.760
776.09	18.824
776.26	18.840
776.44	18.906
776.62	18.993
776.80	18.972
776.98	18.993
777.16	18.995
777.34	19.021
777.51	19.013
777.69	19.005
777.87	19.008
778.05	19.006
778.23	19.063
778.41	19.083
778.58	19.065
778.76	19.150
778.94	19.093
779.12	19.151
779.30	19.165
779.48	19.294
779.65	19.294
779.83	19.308
780.01	19.247
780.19	19.189
780.37	19.202
780.55	19.206
780.72	19.265
780.90	19.335
781.08	19.394
781.26	19.439
781.44	19.388
781.61	19.413
781.79	19.417
781.97	19.425
782.15	19.459
782.33	19.448
782.50	19.462
782.68	19.481
782.86	19.454
783.04	19.361
783.22	19.307
783.39	19.321
783.57	19.306
783.75	19.301
783.93	19.393
784.11	19.469
784.28	19.341
784.46	19.321
784.64	19.284
784.82	19.406
784.99	19.441
785.17	19.420
785.35	19.485
785.53	19.577
785.71	19.619
785.88	19.614
786.06	19.533
786.24	19.713
786.42	19.781
786.59	19.769
786.77	19.675
786.95	19.661
787.13	19.779
787.30	19.862
787.48	19.836
787.66	19.897
787.84	19.853
788.01	19.908
788.19	19.953
788.37	20.036
788.55	20.060
788.72	20.097
788.90	20.122
789.08	20.142
789.26	20.094
789.43	20.143
789.61	20.116
789.79	20.207
789.97	20.214
790.14	20.282
790.32	20.228
790.50	20.302
790.68	20.292
790.85	20.328
791.03	20.307
791.21	20.300
791.38	20.268
791.56	20.274
791.74	20.286
791.92	20.281
792.09	20.247
792.27	20.333
792.45	20.281
792.62	20.348
792.80	20.400
792.98	20.306
793.16	20.283
793.33	20.378
793.51	20.364
793.69	20.297
793.86	20.254
794.04	20.304
794.22	20.292
794.39	20.340
794.57	20.365
794.75	20.345
794.93	20.514
795.10	20.538
795.28	20.527
795.46	20.604
795.63	20.676
795.81	20.777
795.99	20.640
796.16	20.672
796.34	20.797
796.52	20.746
796.69	20.768
796.87	20.761
797.05	20.791
797.22	20.652
797.40	20.705
797.58	20.687
797.75	20.695
797.93	20.733
798.11	20.775
798.28	20.668
798.46	20.697
798.64	20.669
798.81	20.632
798.99	20.676
799.17	20.792
799.34	20.733
799.52	20.793
799.70	20.751
799.87	20.912
800.05	20.794
800.22	20.750
800.40	20.792
800.58	20.854
800.75	20.911
800.93	20.976
801.11	20.970
801.28	21.090
801.46	20.962
801.63	21.125
801.81	21.050
801.99	21.154
802.16	21.284
802.34	21.232
802.52	21.166
802.69	21.150
802.87	21.093
803.04	21.065
803.22	20.998
803.40	21.090
803.57	21.032
803.75	20.936
803.93	20.920
804.10	20.954
804.28	20.981
804.45	21.028
804.63	21.065
804.81	21.096
804.98	21.261
805.16	21.334
805.33	21.454
805.51	21.496
805.68	21.623
805.86	21.699
806.04	21.571
806.21	21.680
806.39	21.697
806.56	21.619
806.74	21.591
806.92	21.549
807.09	21.491
807.27	21.486
807.44	21.395
807.62	21.451
807.79	21.417
807.97	21.509
808.15	21.432
808.32	21.474
808.50	21.562
808.67	21.624
808.85	21.598
809.02	21.616
809.20	21.527
809.38	21.550
809.55	21.469
809.73	21.476
809.90	21.559
810.08	21.540
810.25	21.519
810.43	21.586
810.60	21.547
810.78	21.697
810.95	21.656
811.13	21.803
811.31	21.856
811.48	21.989
811.66	22.033
811.83	21.902
812.01	21.950
812.18	21.979
812.36	21.921
812.53	21.896
812.71	21.859
812.88	21.930
813.06	21.884
813.23	21.812
813.41	21.831
813.58	21.776
813.76	21.960
813.93	21.991
814.11	21.956
814.28	22.065
814.46	22.197
814.63	22.085
814.81	22.211
814.98	22.147
815.16	22.162
815.33	21.963
815.51	22.071
815.68	21.998
815.86	22.054
816.03	22.062
816.21	21.951
816.38	21.833
816.56	21.872
816.73	21.852
816.91	22.003
817.08	22.204
817.26	22.344
817.43	22.323
817.61	22.311
817.78	22.332
817.96	22.315
818.13	22.317
818.31	22.404
818.48	22.470
818.66	22.452
818.83	22.355
819.01	22.235
819.18	22.271
819.36	22.303
819.53	22.217
819.70	22.199
819.88	22.386
820.05	22.561
820.23	22.653
820.40	22.739
820.58	22.771
820.75	22.862
820.93	22.865
821.10	22.903
821.28	22.974
821.45	23.078
821.62	23.100
821.80	23.130
821.97	23.193
822.15	23.262
822.32	23.275
822.50	23.507
822.67	23.778
822.84	23.861
823.02	23.800
823.19	23.649
823.37	23.509
823.54	23.356
823.72	23.203
823.89	23.061
824.06	22.970
824.24	22.899
824.41	22.812
824.59	22.703
824.76	22.611
824.94	22.529
825.11	22.459
825.28	22.398
825.46	22.371
825.63	22.377
825.81	22.421
825.98	22.445
826.15	22.501
826.33	22.533
826.50	22.553
826.68	22.601
826.85	22.643
827.02	22.711
827.20	22.847
827.37	23.003
827.54	23.171
827.72	23.330
827.89	23.465
828.07	23.550
828.24	23.573
828.41	23.559
828.59	23.521
828.76	23.481
828.94	23.446
829.11	23.386
829.28	23.309
829.46	23.216
829.63	23.124
829.80	23.048
829.98	22.951
830.15	22.871
830.32	22.845
830.50	22.864
830.67	22.908
830.85	22.928
831.02	22.948
831.19	23.021
831.37	23.092
831.54	23.182
831.71	23.204
831.89	23.312
832.06	23.410
832.23	23.541
832.41	23.540
832.58	23.558
832.75	23.755
832.93	23.782
833.10	23.752
833.27	23.787
833.45	23.881
833.62	24.056
833.79	24.174
833.97	24.283
834.14	24.330
834.31	24.425
834.49	24.497
834.66	24.422
834.83	24.482
835.01	24.453
835.18	24.365
835.35	24.250
835.52	24.110
835.70	23.990
835.87	23.911
836.04	23.846
836.22	23.750
836.39	23.668
836.56	23.604
836.74	23.535
836.91	23.498
837.08	23.474
837.25	23.508
837.43	23.592
837.60	23.602
837.77	23.632
837.95	23.662
838.12	23.644
838.29	23.621
838.46	23.692
838.64	23.657
838.81	23.565
838.98	23.701
839.16	23.625
839.33	23.534
839.50	23.579
839.67	23.680
839.85	23.604
840.02	23.832
840.19	23.845
840.36	24.031
840.54	24.107
840.71	24.328
840.88	24.340
841.06	24.416
841.23	24.615
841.40	24.649
841.57	24.465
841.75	24.513
841.92	24.479
842.09	24.475
842.26	24.337
842.44	24.262
842.61	24.165
842.78	24.145
842.95	24.245
843.12	24.069
843.30	24.072
843.47	24.319
843.64	24.390
843.81	24.569
843.99	24.580
844.16	24.711
844.33	24.713
844.50	24.871
844.68	24.798
844.85	24.622
845.02	24.775
845.19	24.834
845.36	24.480
845.54	24.493
845.71	24.259
845.88	24.327
846.05	24.080
846.22	24.081
846.40	24.057
846.57	24.436
846.74	24.301
846.91	24.219
847.08	24.333
847.26	24.553
847.43	24.433
847.60	24.257
847.77	24.317
847.94	24.531
848.12	24.640
848.29	24.702
848.46	24.334
848.63	24.484
848.80	24.707
848.98	24.637
849.15	24.694
849.32	24.709
849.49	24.774
849.66	24.933
849.83	24.754
850.01	24.865
850.18	24.788
850.35	24.822
850.52	25.231
850.69	24.943
850.86	24.905
851.04	24.789
851.21	25.029
851.38	24.942
851.55	24.656
851.72	24.619
851.89	24.513
852.06	24.568
852.24	24.650
852.41	24.453
852.58	24.643
852.75	24.731
852.92	24.829
853.09	24.802
853.26	24.726
853.44	25.021
853.61	25.158
853.78	25.127
853.95	25.056
854.12	24.879
854.29	24.870
854.46	24.923
854.64	24.856
854.81	24.710
854.98	24.384
855.15	24.627
855.32	24.640
855.49	24.702
855.66	24.529
855.83	24.700
856.00	24.732
856.18	24.994
856.35	24.880
856.52	24.862
856.69	25.136
856.86	25.150
857.03	25.401
857.20	25.540
857.37	25.555
857.54	25.797
857.71	25.829
857.89	25.973
858.06	25.666
858.23	25.583
858.40	25.518
858.57	25.300
858.74	25.162
858.91	24.840
859.08	24.519
859.25	24.630
859.42	25.115
859.59	25.052
859.76	25.003
859.94	25.007
860.11	25.173
860.28	25.399
860.45	25.854
860.62	26.040
860.79	26.040
860.96	26.362
861.13	25.896
861.30	25.506
861.47	25.349
861.64	25.318
861.81	24.932
861.98	24.956
862.15	24.789
862.32	24.506
862.49	24.386
862.66	24.542
862.83	24.184
863.01	24.734
863.18	24.485
863.35	24.660
863.52	25.040
863.69	25.550
863.86	25.404
864.03	25.490
864.20	25.730
864.37	25.789
864.54	26.023
864.71	26.430
864.88	26.076
865.05	26.238
865.22	26.090
865.39	26.235
865.56	26.173
865.73	26.508
865.90	26.398
866.07	26.290
866.24	26.450
866.41	26.254
866.58	26.071
866.75	26.183
866.92	26.196
867.09	26.185
867.26	26.027
867.43	25.813
867.60	25.393
867.77	25.632
867.94	25.601
868.11	25.705
868.28	25.786
868.45	25.686
868.62	25.796
868.79	25.807
868.96	26.179
869.13	26.156
869.30	26.200
869.47	26.302
869.64	26.225
869.81	26.323
869.98	26.304
870.15	26.265
870.32	26.141
870.49	25.783
870.66	25.988
870.83	25.512
871.00	25.570
871.16	25.857
871.33	25.822
871.50	25.734
871.67	25.853
871.84	25.812
872.01	25.742
872.18	26.152
872.35	26.668
872.52	26.517
872.69	26.595
872.86	26.586
873.03	26.799
873.20	26.852
873.37	26.768
873.54	26.790
873.71	26.809
873.88	26.889
874.05	26.910
874.21	26.539
874.38	26.434
874.55	26.589
874.72	26.590
874.89	26.238
875.06	26.356
875.23	26.570
875.40	26.437
875.57	26.516
875.74	26.639
875.91	26.508
876.08	26.687
876.24	26.464
876.41	26.213
876.58	26.383
876.75	26.442
876.92	26.413
877.09	26.442
877.26	26.568
877.43	26.297
877.60	26.238
877.77	26.090
877.93	26.369
878.10	26.746
878.27	27.044
878.44	27.015
878.61	27.071
878.78	27.095
878.95	27.052
879.12	27.010
879.28	27.258
879.45	27.380
879.62	27.541
879.79	27.161
879.96	27.377
880.13	27.309
880.30	27.301
880.47	27.267
880.63	27.495
880.80	27.479
880.97	27.484
881.14	27.570
881.31	27.631
881.48	27.756
881.65	28.119
881.81	28.362
881.98	28.607
882.15	28.811
882.32	28.976
882.49	28.904
882.66	28.888
882.82	28.721
882.99	28.518
883.16	28.370
883.33	28.229
883.50	28.086
883.67	27.969
883.83	27.852
884.00	27.728
884.17	27.569
884.34	27.450
884.51	27.334
884.68	27.251
884.84	27.205
885.01	27.173
885.18	27.180
885.35	27.147
885.52	27.102
885.68	27.085
885.85	27.066
886.02	27.629
886.19	26.515
886.36	27.063
886.53	27.118
886.69	27.509
>>>>>End Spectral Data<<<<<
