OOIBase32 Version 2.0.6.5 Data File
++++++++++++++++++++++++++++++++++++
Date: 03-24-2011, 10:55:26
User: Valued Ocean Optics Customer
Spectrometer Serial Number: USB4C01507
Spectrometer Channel: Master
Integration Time (msec): 46
Spectra Averaged: 30
Boxcar Smoothing: 5
Correct for Electrical Dark: Enabled
Time Normalized: Disabled
Dual-beam Reference: Disabled
Reference Channel: Master
Temperature: Not acquired
Spectrometer Type: S4000
ADC Type: USB4000
Number of Pixels in File: 3648
Graph Title: 
>>>>>Begin Spectral Data<<<<<
179.17	1016.369
179.39	3151.898
179.60	96.023
179.82	62.138
180.03	572.713
180.24	360.010
180.46	28.301
180.67	-140.857
180.89	42.923
181.10	-55.021
181.31	67.296
181.53	-141.991
181.74	-0.946
181.96	417.523
182.17	49.696
182.39	-56.041
182.60	30.527
182.81	216.140
183.03	177.069
183.24	-228.217
183.46	15.508
183.67	9.129
183.88	1.758
184.10	18.571
184.31	10.696
184.53	19.276
184.74	11.585
184.96	18.098
185.17	17.511
185.38	17.765
185.60	18.847
185.81	26.423
186.03	22.518
186.24	25.813
186.45	20.538
186.67	21.941
186.88	16.878
187.10	17.678
187.31	10.791
187.52	7.582
187.74	9.090
187.95	2.855
188.17	-0.788
188.38	0.565
188.59	-0.318
188.81	8.140
189.02	10.257
189.24	7.540
189.45	5.688
189.66	13.151
189.88	5.132
190.09	7.886
190.30	9.799
190.52	12.407
190.73	16.142
190.95	15.397
191.16	15.602
191.37	12.519
191.59	17.476
191.80	25.250
192.02	20.656
192.23	37.931
192.44	24.497
192.66	24.211
192.87	10.369
193.08	4.621
193.30	0.652
193.51	0.990
193.73	5.239
193.94	8.062
194.15	6.301
194.37	5.834
194.58	4.407
194.79	3.631
195.01	-3.652
195.22	1.211
195.44	0.525
195.65	8.264
195.86	2.292
196.08	3.984
196.29	2.877
196.50	6.334
196.72	10.144
196.93	10.350
197.14	13.707
197.36	22.397
197.57	20.171
197.79	24.356
198.00	17.003
198.21	22.580
198.43	20.614
198.64	20.532
198.85	17.243
199.07	15.941
199.28	13.739
199.49	12.471
199.71	7.405
199.92	14.610
200.13	10.882
200.35	18.820
200.56	13.983
200.78	11.894
200.99	11.682
201.20	16.904
201.42	14.310
201.63	10.056
201.84	9.122
202.06	9.048
202.27	5.131
202.48	7.140
202.70	1.728
202.91	0.027
203.12	-1.947
203.34	-2.379
203.55	-6.710
203.76	-3.726
203.98	2.864
204.19	1.275
204.40	2.475
204.62	4.206
204.83	4.662
205.04	7.650
205.26	7.591
205.47	12.692
205.68	13.355
205.90	11.598
206.11	10.067
206.32	4.978
206.54	9.478
206.75	10.923
206.96	9.988
207.18	5.851
207.39	5.074
207.60	8.439
207.82	3.604
208.03	4.186
208.24	7.071
208.45	9.572
208.67	7.535
208.88	2.723
209.09	-2.476
209.31	-3.081
209.52	-5.943
209.73	-5.453
209.95	-3.636
210.16	-0.847
210.37	-0.348
210.59	2.285
210.80	-0.332
211.01	3.876
211.23	9.107
211.44	10.198
211.65	8.650
211.86	11.783
212.08	11.490
212.29	8.946
212.50	7.034
212.72	2.560
212.93	-1.701
213.14	2.161
213.36	0.683
213.57	0.626
213.78	2.812
213.99	6.526
214.21	7.317
214.42	6.149
214.63	6.498
214.85	5.294
215.06	6.912
215.27	9.100
215.49	4.152
215.70	6.180
215.91	3.574
216.12	1.740
216.34	0.060
216.55	-0.469
216.76	0.533
216.98	1.166
217.19	1.647
217.40	6.080
217.61	6.114
217.83	10.299
218.04	7.184
218.25	8.214
218.47	8.496
218.68	7.940
218.89	7.214
219.10	7.616
219.32	5.239
219.53	6.014
219.74	4.720
219.95	4.601
220.17	3.147
220.38	5.285
220.59	2.943
220.81	2.817
221.02	4.661
221.23	4.998
221.44	3.736
221.66	5.132
221.87	4.237
222.08	4.032
222.29	4.052
222.51	5.171
222.72	3.667
222.93	5.572
223.14	5.825
223.36	5.018
223.57	4.534
223.78	5.876
223.99	5.057
224.21	5.919
224.42	4.635
224.63	3.733
224.84	2.299
225.06	3.282
225.27	2.678
225.48	2.900
225.69	2.826
225.91	3.212
226.12	2.409
226.33	3.018
226.54	2.498
226.76	2.712
226.97	2.782
227.18	2.698
227.39	2.365
227.61	2.441
227.82	2.254
228.03	2.255
228.24	2.210
228.46	2.334
228.67	2.299
228.88	2.302
229.09	2.188
229.31	2.108
229.52	2.228
229.73	2.489
229.94	2.390
230.16	2.601
230.37	2.743
230.58	2.711
230.79	2.737
231.00	2.829
231.22	2.903
231.43	3.252
231.64	3.745
231.85	3.739
232.07	3.442
232.28	3.746
232.49	3.881
232.70	3.517
232.91	3.560
233.13	3.454
233.34	3.352
233.55	3.642
233.76	3.303
233.98	3.155
234.19	3.004
234.40	2.962
234.61	2.793
234.82	2.847
235.04	2.730
235.25	2.997
235.46	2.426
235.67	2.506
235.88	2.472
236.10	2.781
236.31	2.535
236.52	2.821
236.73	2.912
236.94	2.931
237.16	2.134
237.37	2.764
237.58	2.173
237.79	2.872
238.01	2.291
238.22	2.083
238.43	2.041
238.64	2.433
238.85	2.209
239.06	2.432
239.28	2.375
239.49	2.805
239.70	2.507
239.91	2.571
240.12	2.235
240.34	2.460
240.55	2.476
240.76	2.392
240.97	2.305
241.18	2.266
241.40	2.043
241.61	1.998
241.82	2.017
242.03	2.174
242.24	2.156
242.45	2.284
242.67	2.342
242.88	2.345
243.09	2.263
243.30	2.155
243.51	2.223
243.73	2.293
243.94	2.426
244.15	2.355
244.36	2.113
244.57	2.373
244.78	2.296
245.00	2.125
245.21	2.015
245.42	2.167
245.63	2.188
245.84	2.211
246.05	2.167
246.27	2.178
246.48	2.197
246.69	2.167
246.90	2.102
247.11	2.054
247.32	2.078
247.54	2.127
247.75	2.113
247.96	2.097
248.17	2.068
248.38	2.154
248.59	2.078
248.81	2.018
249.02	2.013
249.23	1.952
249.44	2.053
249.65	1.970
249.86	1.718
250.07	1.802
250.29	1.681
250.50	1.716
250.71	1.564
250.92	1.657
251.13	1.585
251.34	1.708
251.55	1.668
251.77	1.642
251.98	1.610
252.19	1.749
252.40	1.606
252.61	1.688
252.82	1.550
253.03	1.580
253.25	1.577
253.46	1.542
253.67	1.453
253.88	1.481
254.09	1.548
254.30	1.587
254.51	1.455
254.73	1.677
254.94	1.829
255.15	2.026
255.36	2.057
255.57	1.838
255.78	1.938
255.99	1.895
256.20	2.032
256.42	2.115
256.63	1.862
256.84	1.942
257.05	1.814
257.26	1.773
257.47	1.673
257.68	1.747
257.89	1.788
258.10	1.881
258.32	1.763
258.53	1.769
258.74	1.662
258.95	1.706
259.16	1.671
259.37	1.635
259.58	1.521
259.79	1.583
260.00	1.520
260.22	1.544
260.43	1.496
260.64	1.532
260.85	1.535
261.06	1.600
261.27	1.624
261.48	1.755
261.69	1.714
261.90	1.859
262.12	1.767
262.33	1.893
262.54	1.867
262.75	2.018
262.96	1.978
263.17	1.883
263.38	1.791
263.59	1.874
263.80	1.684
264.01	1.906
264.22	1.908
264.44	1.871
264.65	1.590
264.86	1.605
265.07	1.274
265.28	1.354
265.49	1.406
265.70	1.444
265.91	1.413
266.12	1.462
266.33	1.437
266.54	1.456
266.75	1.420
266.97	1.601
267.18	1.614
267.39	1.692
267.60	1.623
267.81	1.551
268.02	1.517
268.23	1.659
268.44	1.577
268.65	1.627
268.86	1.663
269.07	1.809
269.28	1.644
269.49	1.703
269.70	1.717
269.92	1.694
270.13	1.721
270.34	1.793
270.55	1.631
270.76	1.646
270.97	1.574
271.18	1.648
271.39	1.560
271.60	1.644
271.81	1.513
272.02	1.560
272.23	1.644
272.44	1.712
272.65	1.635
272.86	1.667
273.07	1.610
273.28	1.756
273.49	1.640
273.71	1.613
273.92	1.663
274.13	1.689
274.34	1.519
274.55	1.487
274.76	1.348
274.97	1.449
275.18	1.382
275.39	1.451
275.60	1.222
275.81	1.371
276.02	1.370
276.23	1.347
276.44	1.360
276.65	1.580
276.86	1.588
277.07	1.659
277.28	1.642
277.49	1.725
277.70	1.633
277.91	1.749
278.12	1.588
278.33	1.572
278.54	1.616
278.75	1.678
278.96	1.535
279.17	1.569
279.39	1.561
279.60	1.523
279.81	1.416
280.02	1.490
280.23	1.376
280.44	1.412
280.65	1.441
280.86	1.442
281.07	1.421
281.28	1.500
281.49	1.384
281.70	1.467
281.91	1.495
282.12	1.518
282.33	1.579
282.54	1.629
282.75	1.710
282.96	1.815
283.17	1.772
283.38	1.735
283.59	1.718
283.80	1.715
284.01	1.525
284.22	1.501
284.43	1.519
284.64	1.442
284.85	1.443
285.06	1.422
285.27	1.320
285.48	1.279
285.69	1.272
285.90	1.316
286.11	1.332
286.32	1.420
286.53	1.339
286.74	1.424
286.95	1.432
287.16	1.497
287.37	1.417
287.58	1.379
287.79	1.421
288.00	1.410
288.21	1.245
288.42	1.205
288.63	1.215
288.84	1.302
289.05	1.272
289.26	1.339
289.47	1.261
289.68	1.219
289.89	1.269
290.10	1.223
290.31	1.192
290.51	1.278
290.72	1.323
290.93	1.392
291.14	1.336
291.35	1.267
291.56	1.217
291.77	1.156
291.98	1.196
292.19	1.247
292.40	1.240
292.61	1.297
292.82	1.223
293.03	1.236
293.24	1.137
293.45	1.299
293.66	1.337
293.87	1.416
294.08	1.427
294.29	1.527
294.50	1.467
294.71	1.529
294.92	1.507
295.13	1.598
295.34	1.533
295.55	1.586
295.76	1.420
295.96	1.372
296.17	1.382
296.38	1.460
296.59	1.384
296.80	1.397
297.01	1.390
297.22	1.424
297.43	1.438
297.64	1.468
297.85	1.405
298.06	1.385
298.27	1.401
298.48	1.355
298.69	1.303
298.90	1.339
299.11	1.317
299.32	1.267
299.53	1.153
299.73	1.105
299.94	1.137
300.15	1.157
300.36	1.319
300.57	1.342
300.78	1.342
300.99	1.363
301.20	1.348
301.41	1.392
301.62	1.467
301.83	1.574
302.04	1.569
302.25	1.543
302.45	1.534
302.66	1.443
302.87	1.403
303.08	1.385
303.29	1.315
303.50	1.331
303.71	1.354
303.92	1.325
304.13	1.274
304.34	1.316
304.55	1.322
304.76	1.371
304.96	1.374
305.17	1.401
305.38	1.405
305.59	1.445
305.80	1.431
306.01	1.404
306.22	1.404
306.43	1.438
306.64	1.332
306.85	1.343
307.06	1.280
307.26	1.276
307.47	1.176
307.68	1.218
307.89	1.230
308.10	1.224
308.31	1.208
308.52	1.259
308.73	1.255
308.94	1.304
309.14	1.308
309.35	1.375
309.56	1.415
309.77	1.451
309.98	1.454
310.19	1.474
310.40	1.448
310.61	1.436
310.82	1.411
311.02	1.393
311.23	1.397
311.44	1.363
311.65	1.261
311.86	1.260
312.07	1.267
312.28	1.196
312.49	1.121
312.69	1.131
312.90	1.110
313.11	1.075
313.32	1.048
313.53	0.999
313.74	0.939
313.95	1.002
314.16	0.947
314.36	0.983
314.57	1.035
314.78	1.113
314.99	1.146
315.20	1.195
315.41	1.225
315.62	1.218
315.82	1.272
316.03	1.268
316.24	1.292
316.45	1.339
316.66	1.345
316.87	1.366
317.08	1.343
317.28	1.420
317.49	1.351
317.70	1.285
317.91	1.316
318.12	1.309
318.33	1.336
318.54	1.296
318.74	1.241
318.95	1.213
319.16	1.158
319.37	1.178
319.58	1.090
319.79	1.166
319.99	1.192
320.20	1.212
320.41	1.186
320.62	1.238
320.83	1.237
321.04	1.263
321.24	1.229
321.45	1.310
321.66	1.240
321.87	1.278
322.08	1.242
322.29	1.227
322.49	1.205
322.70	1.249
322.91	1.215
323.12	1.260
323.33	1.270
323.54	1.289
323.74	1.226
323.95	1.249
324.16	1.198
324.37	1.195
324.58	1.256
324.79	1.232
324.99	1.166
325.20	1.228
325.41	1.173
325.62	1.162
325.83	1.137
326.03	1.082
326.24	1.101
326.45	1.127
326.66	1.122
326.87	1.108
327.07	1.100
327.28	1.127
327.49	1.094
327.70	1.160
327.91	1.160
328.11	1.150
328.32	1.240
328.53	1.325
328.74	1.322
328.95	1.306
329.15	1.288
329.36	1.370
329.57	1.318
329.78	1.352
329.99	1.252
330.19	1.211
330.40	1.219
330.61	1.196
330.82	1.072
331.03	1.014
331.23	1.040
331.44	1.062
331.65	0.998
331.86	1.098
332.07	1.103
332.27	1.164
332.48	1.197
332.69	1.250
332.90	1.244
333.10	1.312
333.31	1.360
333.52	1.333
333.73	1.313
333.94	1.342
334.14	1.281
334.35	1.239
334.56	1.223
334.77	1.189
334.97	1.140
335.18	1.109
335.39	1.064
335.60	1.052
335.80	1.057
336.01	1.049
336.22	0.994
336.43	1.011
336.64	0.975
336.84	0.982
337.05	1.004
337.26	1.029
337.47	1.030
337.67	1.094
337.88	1.063
338.09	1.026
338.30	1.057
338.50	1.125
338.71	1.144
338.92	1.185
339.13	1.224
339.33	1.237
339.54	1.176
339.75	1.204
339.96	1.172
340.16	1.205
340.37	1.240
340.58	1.235
340.79	1.216
340.99	1.193
341.20	1.153
341.41	1.079
341.62	1.064
341.82	1.115
342.03	1.049
342.24	0.990
342.44	0.985
342.65	0.981
342.86	0.917
343.07	0.936
343.27	0.937
343.48	0.955
343.69	0.987
343.90	1.001
344.10	0.959
344.31	1.033
344.52	1.071
344.72	1.079
344.93	1.057
345.14	1.087
345.35	1.058
345.55	1.064
345.76	1.055
345.97	1.080
346.18	1.059
346.38	1.110
346.59	1.070
346.80	1.066
347.00	1.056
347.21	1.089
347.42	1.101
347.62	1.076
347.83	1.020
348.04	1.013
348.25	0.967
348.45	0.979
348.66	0.950
348.87	0.967
349.07	0.932
349.28	0.956
349.49	0.938
349.70	0.944
349.90	0.938
350.11	0.980
350.32	0.968
350.52	0.979
350.73	0.974
350.94	0.975
351.14	0.941
351.35	1.003
351.56	0.979
351.76	0.994
351.97	0.971
352.18	0.983
352.39	0.961
352.59	1.023
352.80	1.033
353.01	1.051
353.21	1.043
353.42	1.098
353.63	1.036
353.83	1.044
354.04	1.019
354.25	1.020
354.45	0.991
354.66	1.043
354.87	1.014
355.07	1.006
355.28	0.983
355.49	1.021
355.69	1.013
355.90	1.059
356.11	1.056
356.31	1.108
356.52	1.123
356.73	1.175
356.93	1.133
357.14	1.138
357.35	1.160
357.55	1.180
357.76	1.160
357.97	1.119
358.17	1.142
358.38	1.140
358.59	1.112
358.79	1.105
359.00	1.080
359.21	1.102
359.41	1.049
359.62	1.034
359.83	0.998
360.03	0.996
360.24	1.058
360.44	1.026
360.65	0.994
360.86	0.985
361.06	0.949
361.27	0.967
361.48	0.935
361.68	0.969
361.89	0.945
362.10	0.957
362.30	0.955
362.51	0.923
362.72	0.919
362.92	0.951
363.13	0.917
363.33	0.951
363.54	0.937
363.75	0.950
363.95	0.952
364.16	0.983
364.37	1.008
364.57	1.009
364.78	1.011
364.98	1.034
365.19	1.028
365.40	1.096
365.60	1.081
365.81	1.098
366.02	1.104
366.22	1.108
366.43	1.080
366.63	1.055
366.84	1.047
367.05	1.040
367.25	0.982
367.46	0.956
367.66	0.932
367.87	0.968
368.08	0.955
368.28	0.966
368.49	0.943
368.69	0.934
368.90	0.947
369.11	0.944
369.31	0.948
369.52	1.003
369.72	1.046
369.93	1.030
370.14	1.026
370.34	1.004
370.55	0.972
370.75	0.976
370.96	0.999
371.17	1.007
371.37	1.003
371.58	1.015
371.78	1.013
371.99	1.012
372.20	1.019
372.40	0.970
372.61	0.985
372.81	1.027
373.02	1.046
373.23	1.038
373.43	1.030
373.64	1.042
373.84	0.992
374.05	0.987
374.25	0.961
374.46	0.941
374.67	0.949
374.87	0.985
375.08	0.954
375.28	0.924
375.49	0.915
375.69	0.915
375.90	0.894
376.11	0.937
376.31	0.908
376.52	0.903
376.72	0.916
376.93	0.945
377.13	0.927
377.34	0.946
377.55	0.955
377.75	0.974
377.96	0.946
378.16	0.985
378.37	0.987
378.57	1.044
378.78	1.045
378.98	1.041
379.19	1.032
379.40	1.007
379.60	0.991
379.81	1.010
380.01	0.981
380.22	0.990
380.42	0.959
380.63	0.948
380.83	0.895
381.04	0.887
381.24	0.888
381.45	0.899
381.66	0.910
381.86	0.923
382.07	0.899
382.27	0.930
382.48	0.917
382.68	0.904
382.89	0.911
383.09	0.931
383.30	0.930
383.50	0.946
383.71	0.908
383.91	0.927
384.12	0.915
384.32	0.925
384.53	0.920
384.73	0.942
384.94	0.950
385.15	0.960
385.35	0.974
385.56	1.001
385.76	0.972
385.97	1.021
386.17	1.001
386.38	1.001
386.58	0.992
386.79	1.011
386.99	1.017
387.20	1.038
387.40	1.017
387.61	0.997
387.81	0.975
388.02	1.007
388.22	0.971
388.43	0.980
388.63	0.970
388.84	1.001
389.04	0.986
389.25	0.971
389.45	0.953
389.66	0.969
389.86	0.976
390.07	0.986
390.27	0.966
390.48	0.977
390.68	0.969
390.89	0.999
391.09	0.984
391.30	1.005
391.50	1.027
391.71	1.043
391.91	1.036
392.12	1.040
392.32	1.044
392.53	1.060
392.73	1.062
392.94	1.068
393.14	1.054
393.35	1.053
393.55	1.018
393.75	1.005
393.96	0.980
394.16	0.972
394.37	0.961
394.57	0.968
394.78	0.968
394.98	0.945
395.19	0.929
395.39	0.935
395.60	0.917
395.80	0.938
396.01	0.926
396.21	0.957
396.42	0.945
396.62	0.938
396.83	0.918
397.03	0.927
397.23	0.938
397.44	0.965
397.64	0.954
397.85	0.969
398.05	0.960
398.26	0.968
398.46	0.947
398.67	0.963
398.87	0.961
399.08	0.987
399.28	0.970
399.48	0.976
399.69	0.955
399.89	0.968
400.10	0.976
400.30	0.986
400.51	0.992
400.71	1.010
400.92	1.002
401.12	1.024
401.32	0.991
401.53	0.986
401.73	0.977
401.94	0.997
402.14	0.993
402.35	1.002
402.55	0.987
402.75	0.969
402.96	0.956
403.16	0.964
403.37	0.948
403.57	0.970
403.78	0.969
403.98	0.991
404.18	0.983
404.39	0.974
404.59	0.962
404.80	0.966
405.00	0.973
405.21	0.994
405.41	1.002
405.61	1.013
405.82	0.999
406.02	1.016
406.23	1.013
406.43	1.031
406.63	1.036
406.84	1.039
407.04	1.048
407.25	1.069
407.45	1.065
407.65	1.047
407.86	1.025
408.06	1.020
408.27	1.019
408.47	1.022
408.67	0.987
408.88	0.977
409.08	0.969
409.29	0.977
409.49	0.971
409.69	0.962
409.90	0.974
410.10	0.996
410.31	1.002
410.51	1.014
410.71	1.012
410.92	1.018
411.12	1.026
411.33	1.044
411.53	1.036
411.73	1.024
411.94	1.036
412.14	1.025
412.34	1.021
412.55	1.034
412.75	1.020
412.96	1.012
413.16	1.016
413.36	1.013
413.57	0.975
413.77	0.978
413.97	0.995
414.18	1.000
414.38	1.004
414.59	1.008
414.79	0.993
414.99	0.974
415.20	0.968
415.40	0.964
415.60	0.963
415.81	0.983
416.01	0.973
416.21	0.962
416.42	0.944
416.62	0.950
416.83	0.931
417.03	0.930
417.23	0.925
417.44	0.931
417.64	0.929
417.84	0.936
418.05	0.943
418.25	0.951
418.45	0.956
418.66	0.960
418.86	0.953
419.06	0.978
419.27	0.971
419.47	0.986
419.67	0.987
419.88	0.985
420.08	0.980
420.28	0.972
420.49	0.960
420.69	0.947
420.89	0.940
421.10	0.942
421.30	0.929
421.50	0.938
421.71	0.929
421.91	0.927
422.11	0.936
422.32	0.943
422.52	0.941
422.72	0.957
422.93	0.976
423.13	0.987
423.33	0.992
423.54	0.996
423.74	0.987
423.94	0.995
424.15	0.988
424.35	0.996
424.55	0.990
424.76	0.995
424.96	0.990
425.16	0.980
425.36	0.974
425.57	0.975
425.77	0.968
425.97	0.978
426.18	0.976
426.38	0.981
426.58	0.973
426.79	0.986
426.99	0.971
427.19	0.973
427.39	0.972
427.60	0.958
427.80	0.967
428.00	0.991
428.21	0.996
428.41	0.998
428.61	1.003
428.82	0.989
429.02	0.983
429.22	1.017
429.42	1.014
429.63	1.020
429.83	1.032
430.03	1.021
430.24	1.009
430.44	1.012
430.64	1.009
430.84	1.010
431.05	1.002
431.25	1.001
431.45	0.989
431.65	0.992
431.86	0.991
432.06	0.999
432.26	1.002
432.47	1.015
432.67	0.999
432.87	1.008
433.07	1.011
433.28	1.034
433.48	1.029
433.68	1.017
433.88	1.022
434.09	1.031
434.29	1.027
434.49	1.033
434.69	1.025
434.90	1.036
435.10	1.018
435.30	1.027
435.51	1.034
435.71	1.058
435.91	1.081
436.11	1.065
436.32	1.051
436.52	1.071
436.72	1.081
436.92	1.072
437.13	1.075
437.33	1.089
437.53	1.077
437.73	1.056
437.93	1.038
438.14	1.024
438.34	1.031
438.54	1.045
438.74	1.033
438.95	1.018
439.15	1.028
439.35	1.038
439.55	1.024
439.76	1.030
439.96	1.041
440.16	1.046
440.36	1.045
440.56	1.049
440.77	1.033
440.97	1.038
441.17	1.031
441.37	1.016
441.58	1.009
441.78	1.033
441.98	1.030
442.18	1.022
442.38	1.019
442.59	1.027
442.79	1.023
442.99	1.043
443.19	1.035
443.40	1.055
443.60	1.075
443.80	1.069
444.00	1.041
444.20	1.033
444.41	1.022
444.61	1.024
444.81	1.027
445.01	1.032
445.21	1.018
445.42	1.026
445.62	1.014
445.82	1.000
446.02	1.002
446.22	1.011
446.43	1.005
446.63	1.011
446.83	1.009
447.03	1.004
447.23	1.008
447.44	1.022
447.64	1.009
447.84	1.009
448.04	1.011
448.24	1.020
448.44	1.031
448.65	1.039
448.85	1.050
449.05	1.058
449.25	1.053
449.45	1.056
449.65	1.052
449.86	1.073
450.06	1.083
450.26	1.099
450.46	1.085
450.66	1.079
450.87	1.094
451.07	1.108
451.27	1.095
451.47	1.105
451.67	1.103
451.87	1.105
452.08	1.099
452.28	1.093
452.48	1.080
452.68	1.089
452.88	1.086
453.08	1.072
453.28	1.043
453.49	1.057
453.69	1.066
453.89	1.058
454.09	1.047
454.29	1.052
454.49	1.065
454.70	1.087
454.90	1.084
455.10	1.087
455.30	1.091
455.50	1.106
455.70	1.094
455.90	1.084
456.11	1.074
456.31	1.073
456.51	1.069
456.71	1.060
456.91	1.050
457.11	1.050
457.31	1.051
457.51	1.061
457.72	1.050
457.92	1.052
458.12	1.042
458.32	1.065
458.52	1.077
458.72	1.077
458.92	1.066
459.12	1.068
459.33	1.065
459.53	1.077
459.73	1.087
459.93	1.086
460.13	1.091
460.33	1.106
460.53	1.093
460.73	1.080
460.93	1.089
461.14	1.103
461.34	1.102
461.54	1.113
461.74	1.106
461.94	1.095
462.14	1.105
462.34	1.104
462.54	1.102
462.74	1.101
462.95	1.118
463.15	1.113
463.35	1.107
463.55	1.109
463.75	1.107
463.95	1.112
464.15	1.118
464.35	1.127
464.55	1.125
464.75	1.119
464.95	1.139
465.16	1.136
465.36	1.133
465.56	1.141
465.76	1.146
465.96	1.155
466.16	1.159
466.36	1.155
466.56	1.136
466.76	1.135
466.96	1.133
467.16	1.126
467.36	1.117
467.57	1.118
467.77	1.113
467.97	1.113
468.17	1.106
468.37	1.091
468.57	1.104
468.77	1.123
468.97	1.127
469.17	1.138
469.37	1.142
469.57	1.155
469.77	1.163
469.97	1.168
470.17	1.173
470.37	1.181
470.57	1.186
470.78	1.171
470.98	1.184
471.18	1.191
471.38	1.183
471.58	1.196
471.78	1.202
471.98	1.200
472.18	1.207
472.38	1.199
472.58	1.206
472.78	1.225
472.98	1.233
473.18	1.227
473.38	1.218
473.58	1.227
473.78	1.217
473.98	1.223
474.18	1.237
474.38	1.228
474.58	1.239
474.78	1.247
474.98	1.242
475.18	1.247
475.38	1.249
475.58	1.257
475.79	1.252
475.99	1.257
476.19	1.248
476.39	1.236
476.59	1.240
476.79	1.242
476.99	1.223
477.19	1.214
477.39	1.195
477.59	1.187
477.79	1.189
477.99	1.194
478.19	1.184
478.39	1.191
478.59	1.191
478.79	1.194
478.99	1.198
479.19	1.208
479.39	1.219
479.59	1.243
479.79	1.242
479.99	1.250
480.19	1.247
480.39	1.250
480.59	1.243
480.79	1.253
480.99	1.255
481.19	1.249
481.39	1.247
481.59	1.245
481.79	1.240
481.99	1.249
482.19	1.241
482.39	1.253
482.59	1.259
482.79	1.266
482.99	1.261
483.19	1.268
483.39	1.282
483.59	1.293
483.79	1.289
483.99	1.285
484.19	1.277
484.39	1.277
484.58	1.275
484.78	1.275
484.98	1.274
485.18	1.278
485.38	1.275
485.58	1.266
485.78	1.249
485.98	1.251
486.18	1.256
486.38	1.271
486.58	1.278
486.78	1.278
486.98	1.284
487.18	1.288
487.38	1.290
487.58	1.293
487.78	1.294
487.98	1.301
488.18	1.301
488.38	1.305
488.58	1.300
488.78	1.301
488.98	1.304
489.18	1.304
489.37	1.301
489.57	1.303
489.77	1.305
489.97	1.307
490.17	1.310
490.37	1.315
490.57	1.312
490.77	1.320
490.97	1.324
491.17	1.328
491.37	1.335
491.57	1.343
491.77	1.341
491.97	1.347
492.17	1.347
492.37	1.349
492.56	1.349
492.76	1.357
492.96	1.360
493.16	1.367
493.36	1.369
493.56	1.370
493.76	1.370
493.96	1.377
494.16	1.371
494.36	1.378
494.56	1.380
494.76	1.393
494.95	1.387
495.15	1.390
495.35	1.386
495.55	1.389
495.75	1.385
495.95	1.387
496.15	1.392
496.35	1.397
496.55	1.407
496.75	1.412
496.95	1.414
497.14	1.429
497.34	1.427
497.54	1.433
497.74	1.440
497.94	1.447
498.14	1.448
498.34	1.452
498.54	1.457
498.74	1.454
498.93	1.459
499.13	1.463
499.33	1.468
499.53	1.483
499.73	1.487
499.93	1.488
500.13	1.496
500.33	1.503
500.53	1.498
500.72	1.503
500.92	1.499
501.12	1.500
501.32	1.493
501.52	1.490
501.72	1.479
501.92	1.477
502.12	1.474
502.31	1.479
502.51	1.487
502.71	1.494
502.91	1.490
503.11	1.509
503.31	1.517
503.51	1.522
503.70	1.524
503.90	1.546
504.10	1.566
504.30	1.573
504.50	1.570
504.70	1.582
504.90	1.583
505.09	1.601
505.29	1.593
505.49	1.590
505.69	1.590
505.89	1.594
506.09	1.588
506.29	1.575
506.48	1.579
506.68	1.585
506.88	1.583
507.08	1.592
507.28	1.595
507.48	1.597
507.67	1.594
507.87	1.605
508.07	1.616
508.27	1.617
508.47	1.622
508.67	1.632
508.86	1.631
509.06	1.628
509.26	1.627
509.46	1.634
509.66	1.638
509.85	1.648
510.05	1.662
510.25	1.660
510.45	1.664
510.65	1.671
510.85	1.664
511.04	1.677
511.24	1.689
511.44	1.697
511.64	1.690
511.84	1.699
512.03	1.702
512.23	1.696
512.43	1.693
512.63	1.696
512.83	1.704
513.02	1.716
513.22	1.720
513.42	1.723
513.62	1.727
513.82	1.740
514.01	1.744
514.21	1.750
514.41	1.752
514.61	1.764
514.81	1.763
515.00	1.760
515.20	1.760
515.40	1.767
515.60	1.759
515.80	1.762
515.99	1.755
516.19	1.748
516.39	1.749
516.59	1.757
516.78	1.766
516.98	1.777
517.18	1.779
517.38	1.782
517.58	1.773
517.77	1.778
517.97	1.778
518.17	1.786
518.37	1.801
518.56	1.812
518.76	1.816
518.96	1.815
519.16	1.819
519.36	1.830
519.55	1.831
519.75	1.837
519.95	1.853
520.15	1.856
520.34	1.858
520.54	1.862
520.74	1.864
520.94	1.866
521.13	1.877
521.33	1.881
521.53	1.874
521.73	1.885
521.92	1.882
522.12	1.883
522.32	1.890
522.52	1.899
522.71	1.904
522.91	1.904
523.11	1.910
523.31	1.906
523.50	1.902
523.70	1.920
523.90	1.916
524.09	1.939
524.29	1.940
524.49	1.953
524.69	1.959
524.88	1.957
525.08	1.962
525.28	1.967
525.48	1.970
525.67	1.979
525.87	1.978
526.07	1.988
526.26	1.987
526.46	1.992
526.66	1.992
526.86	1.995
527.05	1.997
527.25	2.008
527.45	2.010
527.64	2.008
527.84	2.004
528.04	2.004
528.24	2.008
528.43	2.013
528.63	2.014
528.83	2.019
529.02	2.019
529.22	2.021
529.42	2.018
529.62	2.020
529.81	2.028
530.01	2.036
530.21	2.036
530.40	2.035
530.60	2.033
530.80	2.040
530.99	2.040
531.19	2.048
531.39	2.058
531.58	2.074
531.78	2.087
531.98	2.088
532.18	2.093
532.37	2.106
532.57	2.112
532.77	2.123
532.96	2.126
533.16	2.134
533.36	2.144
533.55	2.154
533.75	2.148
533.95	2.147
534.14	2.151
534.34	2.161
534.54	2.164
534.73	2.174
534.93	2.181
535.13	2.187
535.32	2.189
535.52	2.185
535.72	2.184
535.91	2.198
536.11	2.195
536.31	2.198
536.50	2.203
536.70	2.215
536.90	2.220
537.09	2.227
537.29	2.235
537.48	2.250
537.68	2.257
537.88	2.261
538.07	2.256
538.27	2.276
538.47	2.288
538.66	2.295
538.86	2.298
539.06	2.307
539.25	2.315
539.45	2.328
539.65	2.328
539.84	2.340
540.04	2.348
540.23	2.363
540.43	2.364
540.63	2.368
540.82	2.359
541.02	2.363
541.22	2.363
541.41	2.364
541.61	2.359
541.80	2.362
542.00	2.358
542.20	2.360
542.39	2.361
542.59	2.361
542.79	2.366
542.98	2.377
543.18	2.377
543.37	2.384
543.57	2.385
543.77	2.395
543.96	2.397
544.16	2.411
544.35	2.417
544.55	2.427
544.75	2.444
544.94	2.447
545.14	2.453
545.33	2.469
545.53	2.472
545.73	2.485
545.92	2.488
546.12	2.498
546.31	2.497
546.51	2.501
546.71	2.500
546.90	2.503
547.10	2.502
547.29	2.508
547.49	2.519
547.69	2.533
547.88	2.533
548.08	2.540
548.27	2.537
548.47	2.548
548.66	2.550
548.86	2.568
549.06	2.569
549.25	2.586
549.45	2.597
549.64	2.587
549.84	2.592
550.03	2.605
550.23	2.623
550.43	2.638
550.62	2.641
550.82	2.665
551.01	2.672
551.21	2.684
551.40	2.701
551.60	2.713
551.80	2.718
551.99	2.717
552.19	2.727
552.38	2.718
552.58	2.722
552.77	2.736
552.97	2.727
553.16	2.727
553.36	2.723
553.56	2.719
553.75	2.711
553.95	2.715
554.14	2.718
554.34	2.723
554.53	2.738
554.73	2.745
554.92	2.748
555.12	2.757
555.31	2.768
555.51	2.786
555.70	2.794
555.90	2.804
556.10	2.813
556.29	2.828
556.49	2.830
556.68	2.836
556.88	2.834
557.07	2.838
557.27	2.860
557.46	2.860
557.66	2.865
557.85	2.871
558.05	2.877
558.24	2.891
558.44	2.901
558.63	2.896
558.83	2.893
559.02	2.913
559.22	2.910
559.41	2.902
559.61	2.905
559.80	2.905
560.00	2.906
560.19	2.922
560.39	2.923
560.58	2.925
560.78	2.937
560.97	2.949
561.17	2.950
561.36	2.966
561.56	2.961
561.75	2.971
561.95	2.974
562.14	2.975
562.34	2.971
562.53	2.977
562.73	2.970
562.92	2.987
563.12	2.998
563.31	2.995
563.51	2.998
563.70	3.015
563.90	3.031
564.09	3.046
564.29	3.062
564.48	3.071
564.68	3.076
564.87	3.082
565.07	3.066
565.26	3.069
565.45	3.069
565.65	3.076
565.84	3.078
566.04	3.061
566.23	3.056
566.43	3.067
566.62	3.073
566.82	3.084
567.01	3.093
567.21	3.101
567.40	3.097
567.60	3.116
567.79	3.114
567.98	3.126
568.18	3.155
568.37	3.171
568.57	3.162
568.76	3.175
568.96	3.173
569.15	3.184
569.35	3.208
569.54	3.219
569.73	3.219
569.93	3.228
570.12	3.225
570.32	3.218
570.51	3.215
570.71	3.223
570.90	3.218
571.09	3.236
571.29	3.252
571.48	3.255
571.68	3.259
571.87	3.269
572.07	3.278
572.26	3.273
572.45	3.280
572.65	3.297
572.84	3.298
573.04	3.302
573.23	3.307
573.43	3.303
573.62	3.301
573.81	3.317
574.01	3.322
574.20	3.321
574.40	3.338
574.59	3.346
574.78	3.332
574.98	3.343
575.17	3.346
575.37	3.350
575.56	3.352
575.75	3.360
575.95	3.363
576.14	3.364
576.34	3.361
576.53	3.358
576.72	3.356
576.92	3.381
577.11	3.397
577.31	3.416
577.50	3.417
577.69	3.429
577.89	3.434
578.08	3.436
578.28	3.448
578.47	3.464
578.66	3.477
578.86	3.497
579.05	3.507
579.24	3.509
579.44	3.512
579.63	3.525
579.83	3.531
580.02	3.542
580.21	3.548
580.41	3.553
580.60	3.566
580.79	3.589
580.99	3.595
581.18	3.600
581.38	3.600
581.57	3.610
581.76	3.613
581.96	3.625
582.15	3.636
582.34	3.644
582.54	3.644
582.73	3.656
582.92	3.646
583.12	3.641
583.31	3.634
583.50	3.626
583.70	3.618
583.89	3.622
584.08	3.622
584.28	3.638
584.47	3.642
584.66	3.653
584.86	3.638
585.05	3.657
585.24	3.664
585.44	3.685
585.63	3.710
585.82	3.733
586.02	3.737
586.21	3.739
586.40	3.724
586.60	3.740
586.79	3.736
586.98	3.754
587.18	3.754
587.37	3.758
587.56	3.750
587.76	3.761
587.95	3.759
588.14	3.773
588.34	3.779
588.53	3.787
588.72	3.785
588.92	3.811
589.11	3.815
589.30	3.832
589.50	3.844
589.69	3.860
589.88	3.859
590.07	3.873
590.27	3.879
590.46	3.870
590.65	3.874
590.85	3.879
591.04	3.874
591.23	3.896
591.43	3.887
591.62	3.897
591.81	3.892
592.00	3.897
592.20	3.897
592.39	3.909
592.58	3.933
592.78	3.947
592.97	3.942
593.16	3.955
593.35	3.961
593.55	3.969
593.74	3.967
593.93	3.989
594.13	3.995
594.32	4.005
594.51	4.005
594.70	4.011
594.90	4.010
595.09	4.021
595.28	4.011
595.47	4.020
595.67	4.027
595.86	4.037
596.05	4.043
596.24	4.061
596.44	4.061
596.63	4.058
596.82	4.051
597.02	4.059
597.21	4.068
597.40	4.083
597.59	4.066
597.79	4.065
597.98	4.063
598.17	4.054
598.36	4.049
598.56	4.067
598.75	4.075
598.94	4.100
599.13	4.114
599.32	4.130
599.52	4.130
599.71	4.155
599.90	4.164
600.09	4.179
600.29	4.188
600.48	4.194
600.67	4.181
600.86	4.195
601.06	4.192
601.25	4.199
601.44	4.195
601.63	4.227
601.82	4.238
602.02	4.263
602.21	4.254
602.40	4.274
602.59	4.283
602.79	4.296
602.98	4.307
603.17	4.304
603.36	4.306
603.55	4.320
603.75	4.308
603.94	4.306
604.13	4.294
604.32	4.318
604.51	4.314
604.71	4.311
604.90	4.312
605.09	4.308
605.28	4.311
605.47	4.317
605.67	4.307
605.86	4.321
606.05	4.326
606.24	4.330
606.43	4.334
606.63	4.347
606.82	4.352
607.01	4.364
607.20	4.371
607.39	4.388
607.59	4.378
607.78	4.403
607.97	4.395
608.16	4.388
608.35	4.402
608.54	4.392
608.74	4.386
608.93	4.416
609.12	4.411
609.31	4.417
609.50	4.430
609.69	4.447
609.89	4.444
610.08	4.465
610.27	4.493
610.46	4.509
610.65	4.536
610.84	4.547
611.04	4.536
611.23	4.545
611.42	4.553
611.61	4.553
611.80	4.558
611.99	4.571
612.19	4.566
612.38	4.565
612.57	4.560
612.76	4.554
612.95	4.568
613.14	4.575
613.33	4.588
613.53	4.611
613.72	4.625
613.91	4.636
614.10	4.643
614.29	4.658
614.48	4.669
614.67	4.695
614.86	4.701
615.06	4.716
615.25	4.705
615.44	4.728
615.63	4.728
615.82	4.734
616.01	4.743
616.20	4.746
616.39	4.735
616.59	4.727
616.78	4.719
616.97	4.740
617.16	4.736
617.35	4.765
617.54	4.753
617.73	4.769
617.92	4.784
618.12	4.785
618.31	4.801
618.50	4.821
618.69	4.835
618.88	4.849
619.07	4.837
619.26	4.847
619.45	4.853
619.64	4.868
619.83	4.862
620.03	4.865
620.22	4.869
620.41	4.870
620.60	4.875
620.79	4.884
620.98	4.875
621.17	4.893
621.36	4.902
621.55	4.924
621.74	4.924
621.93	4.933
622.12	4.938
622.32	4.951
622.51	4.946
622.70	4.959
622.89	4.951
623.08	4.955
623.27	4.972
623.46	4.985
623.65	4.970
623.84	4.984
624.03	4.992
624.22	5.013
624.41	5.017
624.60	5.032
624.79	5.028
624.99	5.054
625.18	5.075
625.37	5.068
625.56	5.072
625.75	5.090
625.94	5.085
626.13	5.083
626.32	5.055
626.51	5.063
626.70	5.066
626.89	5.074
627.08	5.086
627.27	5.096
627.46	5.092
627.65	5.093
627.84	5.086
628.03	5.114
628.22	5.134
628.41	5.161
628.60	5.175
628.79	5.195
628.98	5.198
629.17	5.188
629.37	5.191
629.56	5.207
629.75	5.213
629.94	5.232
630.13	5.222
630.32	5.215
630.51	5.216
630.70	5.228
630.89	5.231
631.08	5.262
631.27	5.271
631.46	5.289
631.65	5.292
631.84	5.302
632.03	5.309
632.22	5.322
632.41	5.327
632.60	5.346
632.79	5.333
632.98	5.351
633.17	5.340
633.36	5.352
633.55	5.357
633.74	5.373
633.93	5.381
634.12	5.377
634.31	5.387
634.50	5.417
634.69	5.409
634.88	5.423
635.07	5.402
635.26	5.402
635.45	5.401
635.64	5.392
635.83	5.402
636.02	5.395
636.21	5.407
636.40	5.413
636.59	5.391
636.78	5.392
636.96	5.408
637.15	5.430
637.34	5.443
637.53	5.454
637.72	5.478
637.91	5.467
638.10	5.484
638.29	5.501
638.48	5.505
638.67	5.512
638.86	5.522
639.05	5.534
639.24	5.534
639.43	5.555
639.62	5.558
639.81	5.556
640.00	5.564
640.19	5.579
640.38	5.594
640.57	5.605
640.76	5.619
640.95	5.636
641.14	5.630
641.32	5.668
641.51	5.642
641.70	5.644
641.89	5.665
642.08	5.691
642.27	5.686
642.46	5.687
642.65	5.675
642.84	5.691
643.03	5.695
643.22	5.697
643.41	5.695
643.60	5.731
643.79	5.757
643.98	5.756
644.16	5.756
644.35	5.760
644.54	5.746
644.73	5.767
644.92	5.777
645.11	5.777
645.30	5.794
645.49	5.796
645.68	5.787
645.87	5.801
646.06	5.811
646.24	5.827
646.43	5.842
646.62	5.857
646.81	5.847
647.00	5.834
647.19	5.833
647.38	5.821
647.57	5.809
647.76	5.814
647.95	5.804
648.13	5.802
648.32	5.804
648.51	5.819
648.70	5.804
648.89	5.833
649.08	5.852
649.27	5.880
649.46	5.893
649.65	5.891
649.83	5.899
650.02	5.903
650.21	5.910
650.40	5.922
650.59	5.917
650.78	5.954
650.97	5.940
651.16	5.947
651.34	5.946
651.53	5.939
651.72	5.957
651.91	5.955
652.10	5.963
652.29	5.979
652.48	6.007
652.66	6.019
652.85	6.032
653.04	6.068
653.23	6.060
653.42	6.077
653.61	6.089
653.80	6.088
653.98	6.102
654.17	6.115
654.36	6.136
654.55	6.111
654.74	6.120
654.93	6.125
655.11	6.107
655.30	6.125
655.49	6.116
655.68	6.141
655.87	6.181
656.06	6.204
656.24	6.227
656.43	6.210
656.62	6.209
656.81	6.198
657.00	6.192
657.19	6.209
657.37	6.221
657.56	6.235
657.75	6.186
657.94	6.196
658.13	6.192
658.31	6.171
658.50	6.198
658.69	6.218
658.88	6.235
659.07	6.257
659.26	6.259
659.44	6.270
659.63	6.274
659.82	6.322
660.01	6.318
660.20	6.321
660.38	6.342
660.57	6.356
660.76	6.358
660.95	6.370
661.14	6.381
661.32	6.393
661.51	6.379
661.70	6.406
661.89	6.410
662.08	6.433
662.26	6.460
662.45	6.450
662.64	6.419
662.83	6.455
663.01	6.446
663.20	6.449
663.39	6.463
663.58	6.490
663.77	6.473
663.95	6.510
664.14	6.489
664.33	6.498
664.52	6.517
664.70	6.538
664.89	6.516
665.08	6.555
665.27	6.558
665.45	6.568
665.64	6.570
665.83	6.582
666.02	6.590
666.20	6.597
666.39	6.589
666.58	6.628
666.77	6.638
666.95	6.630
667.14	6.629
667.33	6.652
667.52	6.646
667.70	6.654
667.89	6.661
668.08	6.646
668.27	6.654
668.45	6.664
668.64	6.638
668.83	6.640
669.02	6.662
669.20	6.661
669.39	6.647
669.58	6.665
669.77	6.682
669.95	6.688
670.14	6.700
670.33	6.713
670.51	6.739
670.70	6.772
670.89	6.793
671.08	6.798
671.26	6.819
671.45	6.830
671.64	6.851
671.82	6.879
672.01	6.904
672.20	6.908
672.39	6.924
672.57	6.930
672.76	6.905
672.95	6.912
673.13	6.924
673.32	6.943
673.51	6.949
673.70	6.911
673.88	6.898
674.07	6.897
674.26	6.902
674.44	6.914
674.63	6.898
674.82	6.935
675.00	6.929
675.19	6.949
675.38	6.925
675.56	6.954
675.75	6.983
675.94	6.983
676.12	6.959
676.31	6.976
676.50	6.968
676.69	6.992
676.87	6.999
677.06	6.998
677.25	6.978
677.43	7.001
677.62	6.989
677.81	7.018
677.99	7.048
678.18	7.088
678.37	7.082
678.55	7.102
678.74	7.103
678.93	7.114
679.11	7.127
679.30	7.146
679.48	7.150
679.67	7.165
679.86	7.166
680.04	7.163
680.23	7.168
680.42	7.203
680.60	7.201
680.79	7.217
680.98	7.193
681.16	7.204
681.35	7.203
681.54	7.187
681.72	7.180
681.91	7.192
682.10	7.213
682.28	7.217
682.47	7.217
682.65	7.232
682.84	7.236
683.03	7.248
683.21	7.250
683.40	7.258
683.59	7.306
683.77	7.317
683.96	7.295
684.14	7.300
684.33	7.296
684.52	7.300
684.70	7.293
684.89	7.280
685.07	7.287
685.26	7.304
685.45	7.296
685.63	7.273
685.82	7.292
686.00	7.331
686.19	7.336
686.38	7.356
686.56	7.369
686.75	7.406
686.93	7.411
687.12	7.424
687.31	7.436
687.49	7.477
687.68	7.483
687.86	7.485
688.05	7.491
688.24	7.487
688.42	7.494
688.61	7.480
688.79	7.473
688.98	7.501
689.17	7.517
689.35	7.518
689.54	7.511
689.72	7.511
689.91	7.529
690.09	7.524
690.28	7.549
690.47	7.556
690.65	7.576
690.84	7.606
691.02	7.607
691.21	7.584
691.39	7.587
691.58	7.608
691.76	7.631
691.95	7.630
692.14	7.652
692.32	7.647
692.51	7.656
692.69	7.668
692.88	7.654
693.06	7.653
693.25	7.680
693.43	7.694
693.62	7.698
693.81	7.716
693.99	7.721
694.18	7.703
694.36	7.711
694.55	7.746
694.73	7.741
694.92	7.737
695.10	7.737
695.29	7.754
695.47	7.762
695.66	7.767
695.84	7.786
696.03	7.797
696.21	7.807
696.40	7.804
696.59	7.788
696.77	7.800
696.96	7.792
697.14	7.808
697.33	7.838
697.51	7.859
697.70	7.870
697.88	7.884
698.07	7.885
698.25	7.913
698.44	7.916
698.62	7.902
698.81	7.896
698.99	7.923
699.18	7.923
699.36	7.893
699.55	7.903
699.73	7.889
699.92	7.868
700.10	7.875
700.29	7.876
700.47	7.871
700.66	7.885
700.84	7.903
701.03	7.901
701.21	7.918
701.40	7.934
701.58	7.936
701.77	7.959
701.95	7.970
702.13	7.969
702.32	7.993
702.50	8.035
702.69	8.033
702.87	8.037
703.06	8.096
703.24	8.113
703.43	8.129
703.61	8.130
703.80	8.141
703.98	8.147
704.17	8.165
704.35	8.140
704.54	8.157
704.72	8.175
704.90	8.199
705.09	8.152
705.27	8.197
705.46	8.209
705.64	8.188
705.83	8.190
706.01	8.230
706.20	8.245
706.38	8.272
706.56	8.250
706.75	8.269
706.93	8.260
707.12	8.254
707.30	8.219
707.49	8.242
707.67	8.283
707.86	8.312
708.04	8.288
708.22	8.298
708.41	8.311
708.59	8.327
708.78	8.330
708.96	8.358
709.14	8.402
709.33	8.444
709.51	8.438
709.70	8.454
709.88	8.470
710.07	8.503
710.25	8.539
710.43	8.542
710.62	8.569
710.80	8.575
710.99	8.596
711.17	8.587
711.35	8.561
711.54	8.561
711.72	8.551
711.91	8.550
712.09	8.554
712.27	8.524
712.46	8.511
712.64	8.493
712.83	8.498
713.01	8.499
713.19	8.507
713.38	8.522
713.56	8.547
713.75	8.574
713.93	8.557
714.11	8.556
714.30	8.573
714.48	8.612
714.66	8.615
714.85	8.637
715.03	8.656
715.22	8.657
715.40	8.672
715.58	8.661
715.77	8.676
715.95	8.730
716.13	8.750
716.32	8.731
716.50	8.710
716.68	8.726
716.87	8.712
717.05	8.692
717.24	8.707
717.42	8.704
717.60	8.722
717.79	8.727
717.97	8.711
718.15	8.700
718.34	8.738
718.52	8.793
718.70	8.801
718.89	8.843
719.07	8.806
719.25	8.827
719.44	8.867
719.62	8.890
719.80	8.884
719.99	8.872
720.17	8.893
720.35	8.914
720.54	8.874
720.72	8.883
720.90	8.884
721.09	8.947
721.27	8.938
721.45	8.884
721.64	8.888
721.82	8.880
722.00	8.889
722.19	8.913
722.37	8.913
722.55	8.931
722.74	8.973
722.92	9.006
723.10	9.010
723.28	9.038
723.47	9.088
723.65	9.112
723.83	9.139
724.02	9.185
724.20	9.176
724.38	9.177
724.57	9.186
724.75	9.210
724.93	9.148
725.11	9.172
725.30	9.163
725.48	9.207
725.66	9.181
725.85	9.205
726.03	9.204
726.21	9.225
726.39	9.247
726.58	9.278
726.76	9.262
726.94	9.326
727.13	9.290
727.31	9.308
727.49	9.284
727.67	9.308
727.86	9.288
728.04	9.308
728.22	9.303
728.40	9.343
728.59	9.330
728.77	9.299
728.95	9.297
729.13	9.328
729.32	9.338
729.50	9.359
729.68	9.344
729.86	9.373
730.05	9.372
730.23	9.382
730.41	9.328
730.59	9.327
730.78	9.370
730.96	9.370
731.14	9.388
731.32	9.423
731.51	9.423
731.69	9.474
731.87	9.483
732.05	9.471
732.24	9.509
732.42	9.543
732.60	9.560
732.78	9.556
732.97	9.552
733.15	9.556
733.33	9.535
733.51	9.536
733.69	9.489
733.88	9.460
734.06	9.469
734.24	9.450
734.42	9.437
734.60	9.461
734.79	9.468
734.97	9.505
735.15	9.509
735.33	9.493
735.52	9.514
735.70	9.560
735.88	9.584
736.06	9.638
736.24	9.625
736.43	9.677
736.61	9.686
736.79	9.708
736.97	9.722
737.15	9.717
737.34	9.712
737.52	9.716
737.70	9.723
737.88	9.778
738.06	9.717
738.24	9.803
738.43	9.784
738.61	9.815
738.79	9.815
738.97	9.830
739.15	9.828
739.33	9.869
739.52	9.871
739.70	9.850
739.88	9.813
740.06	9.834
740.24	9.783
740.42	9.816
740.61	9.807
740.79	9.844
740.97	9.804
741.15	9.858
741.33	9.892
741.51	9.913
741.70	9.952
741.88	10.035
742.06	10.081
742.24	10.137
742.42	10.102
742.60	10.097
742.78	10.042
742.97	10.099
743.15	10.072
743.33	10.090
743.51	10.081
743.69	10.118
743.87	10.069
744.05	10.089
744.24	10.075
744.42	10.149
744.60	10.162
744.78	10.215
744.96	10.229
745.14	10.287
745.32	10.262
745.50	10.257
745.69	10.281
745.87	10.329
746.05	10.315
746.23	10.302
746.41	10.254
746.59	10.268
746.77	10.264
746.95	10.304
747.13	10.263
747.32	10.292
747.50	10.342
747.68	10.300
747.86	10.266
748.04	10.307
748.22	10.315
748.40	10.398
748.58	10.411
748.76	10.431
748.94	10.378
749.13	10.407
749.31	10.343
749.49	10.331
749.67	10.387
749.85	10.418
750.03	10.406
750.21	10.397
750.39	10.356
750.57	10.354
750.75	10.378
750.93	10.391
751.11	10.414
751.30	10.469
751.48	10.522
751.66	10.491
751.84	10.511
752.02	10.546
752.20	10.607
752.38	10.630
752.56	10.656
752.74	10.662
752.92	10.672
753.10	10.722
753.28	10.715
753.46	10.669
753.64	10.679
753.82	10.620
754.00	10.562
754.18	10.568
754.37	10.569
754.55	10.608
754.73	10.597
754.91	10.655
755.09	10.596
755.27	10.625
755.45	10.608
755.63	10.660
755.81	10.726
755.99	10.739
756.17	10.762
756.35	10.786
756.53	10.714
756.71	10.749
756.89	10.698
757.07	10.727
757.25	10.769
757.43	10.829
757.61	10.744
757.79	10.731
757.97	10.744
758.15	10.769
758.33	10.809
758.51	10.885
758.69	10.904
758.87	10.916
759.05	10.925
759.23	10.901
759.41	10.963
759.59	11.061
759.77	11.081
759.95	11.121
760.13	11.104
760.31	11.103
760.49	11.094
760.67	11.118
760.85	11.154
761.03	11.179
761.21	11.227
761.39	11.197
761.57	11.199
761.75	11.188
761.93	11.184
762.11	11.190
762.29	11.148
762.47	11.166
762.65	11.124
762.83	11.100
763.01	11.086
763.19	11.062
763.37	11.084
763.55	11.116
763.73	11.190
763.91	11.245
764.09	11.250
764.27	11.283
764.45	11.289
764.63	11.292
764.81	11.309
764.99	11.313
765.16	11.299
765.34	11.286
765.52	11.272
765.70	11.262
765.88	11.247
766.06	11.226
766.24	11.223
766.42	11.226
766.60	11.266
766.78	11.277
766.96	11.288
767.14	11.330
767.32	11.367
767.50	11.330
767.68	11.306
767.86	11.285
768.03	11.340
768.21	11.326
768.39	11.302
768.57	11.298
768.75	11.325
768.93	11.365
769.11	11.371
769.29	11.359
769.47	11.371
769.65	11.388
769.83	11.416
770.01	11.446
770.19	11.456
770.36	11.480
770.54	11.497
770.72	11.502
770.90	11.422
771.08	11.489
771.26	11.480
771.44	11.557
771.62	11.608
771.80	11.584
771.98	11.558
772.15	11.626
772.33	11.661
772.51	11.645
772.69	11.597
772.87	11.723
773.05	11.594
773.23	11.658
773.41	11.717
773.58	11.646
773.76	11.751
773.94	11.717
774.12	11.683
774.30	11.730
774.48	11.723
774.66	11.729
774.84	11.637
775.01	11.746
775.19	11.740
775.37	11.725
775.55	11.762
775.73	11.723
775.91	11.812
776.09	11.879
776.26	11.795
776.44	11.816
776.62	11.852
776.80	11.942
776.98	11.976
777.16	11.997
777.34	11.966
777.51	11.980
777.69	11.995
777.87	12.042
778.05	12.039
778.23	12.085
778.41	12.095
778.58	12.118
778.76	12.079
778.94	12.048
779.12	12.021
779.30	12.045
779.48	12.055
779.65	12.083
779.83	11.998
780.01	11.979
780.19	12.036
780.37	12.054
780.55	12.041
780.72	12.050
780.90	12.090
781.08	12.207
781.26	12.278
781.44	12.313
781.61	12.269
781.79	12.315
781.97	12.327
782.15	12.289
782.33	12.324
782.50	12.309
782.68	12.431
782.86	12.383
783.04	12.233
783.22	12.204
783.39	12.232
783.57	12.231
783.75	12.195
783.93	12.233
784.11	12.193
784.28	12.067
784.46	12.102
784.64	12.030
784.82	12.046
784.99	12.066
785.17	11.994
785.35	12.027
785.53	12.097
785.71	12.114
785.88	12.132
786.06	12.320
786.24	12.472
786.42	12.525
786.59	12.435
786.77	12.500
786.95	12.488
787.13	12.548
787.30	12.554
787.48	12.543
787.66	12.610
787.84	12.541
788.01	12.541
788.19	12.544
788.37	12.585
788.55	12.709
788.72	12.683
788.90	12.818
789.08	12.897
789.26	12.848
789.43	12.843
789.61	12.843
789.79	12.847
789.97	12.831
790.14	12.795
790.32	12.775
790.50	12.782
790.68	12.836
790.85	12.782
791.03	12.717
791.21	12.729
791.38	12.747
791.56	12.766
791.74	12.833
791.92	12.743
792.09	12.771
792.27	12.776
792.45	12.773
792.62	12.699
792.80	12.715
792.98	12.623
793.16	12.671
793.33	12.639
793.51	12.578
793.69	12.508
793.86	12.585
794.04	12.589
794.22	12.642
794.39	12.627
794.57	12.667
794.75	12.728
794.93	12.943
795.10	12.831
795.28	12.832
795.46	12.933
795.63	12.999
795.81	13.012
795.99	12.960
796.16	12.919
796.34	13.010
796.52	12.962
796.69	12.955
796.87	12.901
797.05	13.079
797.22	13.082
797.40	13.089
797.58	13.055
797.75	13.010
797.93	13.106
798.11	13.201
798.28	13.209
798.46	13.282
798.64	13.244
798.81	13.231
798.99	13.188
799.17	13.238
799.34	13.153
799.52	13.251
799.70	13.269
799.87	13.350
800.05	13.246
800.22	13.180
800.40	13.125
800.58	13.130
800.75	13.149
800.93	13.247
801.11	13.271
801.28	13.421
801.46	13.277
801.63	13.371
801.81	13.245
801.99	13.283
802.16	13.247
802.34	13.361
802.52	13.373
802.69	13.401
802.87	13.348
803.04	13.370
803.22	13.302
803.40	13.445
803.57	13.385
803.75	13.407
803.93	13.312
804.10	13.359
804.28	13.255
804.45	13.256
804.63	13.306
804.81	13.226
804.98	13.316
805.16	13.347
805.33	13.418
805.51	13.508
805.68	13.525
805.86	13.654
806.04	13.664
806.21	13.792
806.39	13.862
806.56	13.807
806.74	13.875
806.92	13.825
807.09	13.768
807.27	13.723
807.44	13.621
807.62	13.677
807.79	13.782
807.97	13.828
808.15	13.738
808.32	13.670
808.50	13.701
808.67	13.728
808.85	13.697
809.02	13.728
809.20	13.621
809.38	13.712
809.55	13.644
809.73	13.593
809.90	13.618
810.08	13.671
810.25	13.710
810.43	13.752
810.60	13.718
810.78	13.845
810.95	13.852
811.13	14.037
811.31	14.011
811.48	14.123
811.66	14.148
811.83	14.116
812.01	14.163
812.18	14.215
812.36	14.113
812.53	14.109
812.71	14.032
812.88	14.123
813.06	14.112
813.23	14.116
813.41	14.198
813.58	14.187
813.76	14.284
813.93	14.313
814.11	14.191
814.28	14.339
814.46	14.452
814.63	14.589
814.81	14.579
814.98	14.713
815.16	14.764
815.33	14.659
815.51	14.705
815.68	14.614
815.86	14.619
816.03	14.747
816.21	14.732
816.38	14.552
816.56	14.281
816.73	14.326
816.91	14.148
817.08	14.245
817.26	14.217
817.43	14.275
817.61	14.301
817.78	14.323
817.96	14.248
818.13	14.214
818.31	14.276
818.48	14.539
818.66	14.562
818.83	14.534
819.01	14.361
819.18	14.493
819.36	14.410
819.53	14.512
819.70	14.449
819.88	14.645
820.05	14.709
820.23	14.871
820.40	14.826
820.58	14.795
820.75	14.884
820.93	14.844
821.10	14.826
821.28	14.859
821.45	14.858
821.62	14.975
821.80	14.973
821.97	15.012
822.15	15.039
822.32	15.082
822.50	15.225
822.67	15.394
822.84	15.526
823.02	15.494
823.19	15.396
823.37	15.283
823.54	15.182
823.72	15.075
823.89	14.980
824.06	14.927
824.24	14.895
824.41	14.843
824.59	14.774
824.76	14.711
824.94	14.666
825.11	14.633
825.28	14.615
825.46	14.596
825.63	14.620
825.81	14.664
825.98	14.695
826.15	14.715
826.33	14.738
826.50	14.789
826.68	14.820
826.85	14.831
827.02	14.852
827.20	14.917
827.37	15.013
827.54	15.134
827.72	15.255
827.89	15.330
828.07	15.362
828.24	15.381
828.41	15.360
828.59	15.342
828.76	15.319
828.94	15.312
829.11	15.255
829.28	15.235
829.46	15.172
829.63	15.140
829.80	15.102
829.98	15.061
830.15	15.010
830.32	14.991
830.50	15.002
830.67	15.050
830.85	15.059
831.02	15.148
831.19	15.112
831.37	15.141
831.54	15.086
831.71	15.069
831.89	15.114
832.06	15.186
832.23	15.216
832.41	15.200
832.58	15.183
832.75	15.346
832.93	15.320
833.10	15.374
833.27	15.466
833.45	15.600
833.62	15.641
833.79	15.645
833.97	15.794
834.14	15.900
834.31	15.966
834.49	16.056
834.66	15.988
834.83	16.085
835.01	16.014
835.18	15.964
835.35	15.904
835.52	15.867
835.70	15.789
835.87	15.747
836.04	15.681
836.22	15.586
836.39	15.494
836.56	15.456
836.74	15.352
836.91	15.374
837.08	15.336
837.25	15.323
837.43	15.326
837.60	15.436
837.77	15.406
837.95	15.457
838.12	15.607
838.29	15.723
838.46	15.758
838.64	15.785
838.81	15.749
838.98	15.792
839.16	15.795
839.33	15.794
839.50	15.765
839.67	15.883
839.85	15.760
840.02	15.863
840.19	15.688
840.36	15.954
840.54	16.031
840.71	16.146
840.88	16.350
841.06	16.474
841.23	16.516
841.40	16.568
841.57	16.504
841.75	16.464
841.92	16.301
842.09	16.309
842.26	16.085
842.44	15.994
842.61	15.908
842.78	15.834
842.95	15.810
843.12	15.812
843.30	15.696
843.47	15.695
843.64	15.736
843.81	15.936
843.99	15.930
844.16	16.056
844.33	16.216
844.50	16.327
844.68	16.203
844.85	16.076
845.02	16.065
845.19	16.125
845.36	15.905
845.54	16.039
845.71	15.835
845.88	15.788
846.05	15.572
846.22	15.601
846.40	15.755
846.57	15.781
846.74	15.739
846.91	15.579
847.08	15.597
847.26	16.033
847.43	15.972
847.60	16.040
847.77	16.207
847.94	16.542
848.12	16.567
848.29	16.456
848.46	16.496
848.63	16.865
848.80	17.122
848.98	17.195
849.15	16.935
849.32	17.265
849.49	16.953
849.66	16.960
849.83	16.791
850.01	16.753
850.18	16.633
850.35	16.799
850.52	16.473
850.69	16.384
850.86	16.366
851.04	16.456
851.21	16.160
851.38	16.540
851.55	16.491
851.72	16.359
851.89	16.367
852.06	16.576
852.24	16.235
852.41	16.407
852.58	16.282
852.75	16.349
852.92	16.554
853.09	16.789
853.26	16.587
853.44	16.637
853.61	16.767
853.78	16.691
853.95	16.546
854.12	16.709
854.29	16.906
854.46	16.934
854.64	16.881
854.81	16.797
854.98	16.815
855.15	17.013
855.32	17.120
855.49	17.150
855.66	16.841
855.83	17.074
856.00	17.188
856.18	17.314
856.35	17.296
856.52	17.022
856.69	16.990
856.86	16.954
857.03	16.801
857.20	16.952
857.37	17.167
857.54	17.270
857.71	17.233
857.89	17.467
858.06	16.774
858.23	16.655
858.40	16.658
858.57	16.573
858.74	16.199
858.91	16.449
859.08	16.450
859.25	16.310
859.42	16.326
859.59	16.269
859.76	16.019
859.94	16.556
860.11	16.556
860.28	16.931
860.45	17.183
860.62	17.443
860.79	17.252
860.96	17.182
861.13	17.179
861.30	17.350
861.47	17.169
861.64	17.571
861.81	17.013
861.98	17.267
862.15	17.325
862.32	17.327
862.49	17.259
862.66	17.500
862.83	17.216
863.01	17.470
863.18	17.273
863.35	17.434
863.52	17.442
863.69	17.675
863.86	17.441
864.03	17.317
864.20	17.209
864.37	17.239
864.54	17.230
864.71	17.839
864.88	17.743
865.05	17.921
865.22	17.759
865.39	17.635
865.56	18.127
865.73	18.538
865.90	18.758
866.07	18.729
866.24	18.576
866.41	18.539
866.58	18.042
866.75	17.912
866.92	17.910
867.09	18.032
867.26	18.090
867.43	17.848
867.60	17.492
867.77	17.424
867.94	17.237
868.11	17.735
868.28	17.782
868.45	17.999
868.62	18.233
868.79	18.323
868.96	18.341
869.13	18.131
869.30	18.266
869.47	18.568
869.64	18.320
869.81	18.488
869.98	18.191
870.15	18.446
870.32	18.407
870.49	18.000
870.66	18.107
870.83	18.125
871.00	18.030
871.16	17.924
871.33	17.788
871.50	17.736
871.67	17.826
871.84	17.698
872.01	17.444
872.18	17.422
872.35	18.112
872.52	18.106
872.69	17.835
872.86	17.880
873.03	17.980
873.20	17.803
873.37	17.991
873.54	18.146
873.71	18.265
873.88	18.257
874.05	18.433
874.21	18.098
874.38	17.603
874.55	17.818
874.72	17.754
874.89	17.615
875.06	17.731
875.23	17.870
875.40	17.743
875.57	17.914
875.74	17.816
875.91	17.721
876.08	17.515
876.24	17.964
876.41	17.908
876.58	18.008
876.75	18.005
876.92	18.038
877.09	17.960
877.26	18.132
877.43	18.162
877.60	18.361
877.77	18.164
877.93	18.310
878.10	18.280
878.27	18.264
878.44	18.187
878.61	18.279
878.78	18.362
878.95	18.300
879.12	18.126
879.28	18.143
879.45	18.213
879.62	18.463
879.79	18.406
879.96	18.686
880.13	18.798
880.30	18.913
880.47	18.721
880.63	18.696
880.80	18.695
880.97	18.754
881.14	18.762
881.31	18.837
881.48	18.924
881.65	19.188
881.81	19.283
881.98	19.589
882.15	19.701
882.32	19.892
882.49	19.917
882.66	19.938
882.82	19.815
882.99	19.687
883.16	19.565
883.33	19.472
883.50	19.340
883.67	19.266
883.83	19.170
884.00	19.109
884.17	18.997
884.34	18.916
884.51	18.823
884.68	18.766
884.84	18.741
885.01	18.724
885.18	18.690
885.35	18.712
885.52	18.693
885.68	18.667
885.85	18.634
886.02	18.445
886.19	18.490
886.36	18.768
886.53	18.458
886.69	18.642
>>>>>End Spectral Data<<<<<
