OOIBase32 Version 2.0.6.5 Data File
++++++++++++++++++++++++++++++++++++
Date: 03-24-2011, 10:56:38
User: Valued Ocean Optics Customer
Spectrometer Serial Number: USB4C01507
Spectrometer Channel: Master
Integration Time (msec): 46
Spectra Averaged: 30
Boxcar Smoothing: 5
Correct for Electrical Dark: Enabled
Time Normalized: Disabled
Dual-beam Reference: Disabled
Reference Channel: Master
Temperature: Not acquired
Spectrometer Type: S4000
ADC Type: USB4000
Number of Pixels in File: 3648
Graph Title: 
>>>>>Begin Spectral Data<<<<<
179.17	1447.924
179.39	3175.561
179.60	-100.418
179.82	108.873
180.03	204.774
180.24	1117.714
180.46	75.197
180.67	0.842
180.89	19.508
181.10	-132.554
181.31	190.526
181.53	-128.754
181.74	-21.175
181.96	-327.477
182.17	249.565
182.39	34.128
182.60	-29.043
182.81	217.407
183.03	64.224
183.24	-435.955
183.46	-11.379
183.67	-6.277
183.88	-10.568
184.10	5.971
184.31	9.781
184.53	22.345
184.74	14.868
184.96	14.039
185.17	14.017
185.38	7.927
185.60	19.864
185.81	12.311
186.03	16.970
186.24	20.046
186.45	25.472
186.67	20.637
186.88	16.201
187.10	16.036
187.31	13.488
187.52	3.991
187.74	2.432
187.95	2.810
188.17	1.318
188.38	-9.307
188.59	-8.811
188.81	-28.045
189.02	-13.881
189.24	-14.058
189.45	-1.821
189.66	-4.654
189.88	-11.313
190.09	-0.437
190.30	0.329
190.52	7.949
190.73	14.473
190.95	9.483
191.16	14.033
191.37	3.357
191.59	2.267
191.80	-4.116
192.02	11.074
192.23	25.075
192.44	7.021
192.66	-0.449
192.87	-10.809
193.08	-11.904
193.30	-4.870
193.51	2.364
193.73	10.922
193.94	10.247
194.15	12.149
194.37	8.465
194.58	10.350
194.79	1.596
195.01	2.421
195.22	3.523
195.44	7.140
195.65	6.083
195.86	5.651
196.08	-3.952
196.29	2.307
196.50	3.649
196.72	3.985
196.93	1.996
197.14	8.966
197.36	12.286
197.57	8.685
197.79	6.401
198.00	5.202
198.21	7.408
198.43	17.568
198.64	18.847
198.85	21.125
199.07	14.216
199.28	15.181
199.49	13.112
199.71	14.435
199.92	24.778
200.13	19.960
200.35	24.353
200.56	18.727
200.78	11.857
200.99	4.950
201.20	2.065
201.42	8.052
201.63	-1.486
201.84	2.669
202.06	2.337
202.27	-1.968
202.48	1.854
202.70	-2.662
202.91	-1.483
203.12	-1.553
203.34	-1.505
203.55	-1.270
203.76	-1.155
203.98	8.742
204.19	10.264
204.40	9.714
204.62	6.397
204.83	3.988
205.04	2.214
205.26	1.179
205.47	3.654
205.68	4.106
205.90	6.038
206.11	9.131
206.32	2.201
206.54	4.179
206.75	1.512
206.96	6.913
207.18	12.811
207.39	19.251
207.60	27.413
207.82	27.137
208.03	28.093
208.24	28.082
208.45	25.953
208.67	28.455
208.88	22.580
209.09	22.071
209.31	18.386
209.52	12.691
209.73	9.351
209.95	8.032
210.16	9.535
210.37	9.787
210.59	10.918
210.80	9.551
211.01	9.644
211.23	14.335
211.44	13.197
211.65	14.496
211.86	17.740
212.08	18.856
212.29	14.247
212.50	11.161
212.72	9.385
212.93	7.240
213.14	9.154
213.36	8.038
213.57	7.078
213.78	9.922
213.99	14.164
214.21	16.672
214.42	17.315
214.63	20.293
214.85	20.407
215.06	20.494
215.27	22.206
215.49	22.774
215.70	24.658
215.91	22.473
216.12	20.708
216.34	19.346
216.55	18.242
216.76	17.487
216.98	13.641
217.19	15.507
217.40	15.164
217.61	15.108
217.83	15.846
218.04	14.922
218.25	11.954
218.47	12.084
218.68	11.177
218.89	10.223
219.10	11.226
219.32	11.051
219.53	10.117
219.74	11.564
219.95	8.451
220.17	7.192
220.38	8.102
220.59	10.518
220.81	10.005
221.02	11.675
221.23	12.843
221.44	12.279
221.66	13.767
221.87	13.641
222.08	13.466
222.29	15.291
222.51	16.768
222.72	15.875
222.93	16.492
223.14	17.712
223.36	17.118
223.57	16.898
223.78	16.142
223.99	16.844
224.21	17.179
224.42	16.433
224.63	15.740
224.84	14.710
225.06	15.313
225.27	15.603
225.48	15.236
225.69	15.724
225.91	15.648
226.12	16.317
226.33	16.837
226.54	16.821
226.76	17.110
226.97	17.436
227.18	17.567
227.39	17.547
227.61	17.741
227.82	17.883
228.03	17.819
228.24	17.876
228.46	17.946
228.67	17.952
228.88	18.013
229.09	17.925
229.31	17.797
229.52	17.820
229.73	17.932
229.94	17.710
230.16	17.685
230.37	17.760
230.58	17.632
230.79	17.501
231.00	17.211
231.22	17.056
231.43	17.108
231.64	17.171
231.85	17.218
232.07	16.940
232.28	17.049
232.49	16.836
232.70	16.388
232.91	16.498
233.13	16.156
233.34	16.262
233.55	16.509
233.76	16.261
233.98	16.438
234.19	16.124
234.40	16.002
234.61	15.982
234.82	15.895
235.04	15.741
235.25	15.660
235.46	15.851
235.67	15.567
235.88	15.411
236.10	15.718
236.31	15.639
236.52	15.355
236.73	15.828
236.94	15.450
237.16	15.071
237.37	15.346
237.58	14.994
237.79	14.589
238.01	14.697
238.22	14.738
238.43	14.800
238.64	14.743
238.85	14.986
239.06	14.672
239.28	14.439
239.49	14.768
239.70	14.549
239.91	14.777
240.12	14.779
240.34	14.557
240.55	14.568
240.76	14.512
240.97	14.494
241.18	14.466
241.40	14.299
241.61	14.392
241.82	14.276
242.03	14.407
242.24	14.297
242.45	14.306
242.67	14.398
242.88	14.290
243.09	14.261
243.30	14.011
243.51	14.110
243.73	14.074
243.94	13.965
244.15	13.956
244.36	13.895
244.57	13.944
244.78	14.011
245.00	13.709
245.21	13.636
245.42	13.618
245.63	13.646
245.84	13.547
246.05	13.533
246.27	13.515
246.48	13.523
246.69	13.492
246.90	13.454
247.11	13.331
247.32	13.378
247.54	13.360
247.75	13.323
247.96	13.306
248.17	13.338
248.38	13.425
248.59	13.457
248.81	13.339
249.02	13.218
249.23	13.164
249.44	13.125
249.65	12.947
249.86	12.750
250.07	12.653
250.29	12.494
250.50	12.162
250.71	12.017
250.92	11.991
251.13	12.060
251.34	12.198
251.55	12.089
251.77	12.261
251.98	12.333
252.19	12.361
252.40	12.339
252.61	12.308
252.82	12.262
253.03	12.251
253.25	12.114
253.46	11.976
253.67	11.644
253.88	11.475
254.09	11.258
254.30	11.022
254.51	10.987
254.73	10.903
254.94	10.981
255.15	11.125
255.36	11.088
255.57	11.021
255.78	11.094
255.99	11.047
256.20	11.406
256.42	11.416
256.63	11.285
256.84	11.271
257.05	11.240
257.26	11.199
257.47	11.138
257.68	11.216
257.89	11.290
258.10	11.276
258.32	11.386
258.53	11.289
258.74	11.296
258.95	11.385
259.16	11.407
259.37	11.412
259.58	11.424
259.79	11.471
260.00	11.451
260.22	11.446
260.43	11.440
260.64	11.324
260.85	11.388
261.06	11.403
261.27	11.276
261.48	11.169
261.69	11.088
261.90	11.057
262.12	10.869
262.33	10.822
262.54	10.857
262.75	10.767
262.96	10.935
263.17	10.770
263.38	10.666
263.59	10.748
263.80	10.758
264.01	10.856
264.22	10.680
264.44	10.764
264.65	10.686
264.86	10.549
265.07	10.473
265.28	10.414
265.49	10.406
265.70	10.456
265.91	10.488
266.12	10.500
266.33	10.370
266.54	10.398
266.75	10.372
266.97	10.423
267.18	10.509
267.39	10.716
267.60	10.636
267.81	10.626
268.02	10.512
268.23	10.521
268.44	10.486
268.65	10.537
268.86	10.634
269.07	10.637
269.28	10.498
269.49	10.550
269.70	10.429
269.92	10.506
270.13	10.461
270.34	10.539
270.55	10.474
270.76	10.512
270.97	10.543
271.18	10.472
271.39	10.406
271.60	10.344
271.81	10.319
272.02	10.273
272.23	10.326
272.44	10.358
272.65	10.352
272.86	10.390
273.07	10.371
273.28	10.320
273.49	10.360
273.71	10.352
273.92	10.524
274.13	10.340
274.34	10.289
274.55	10.197
274.76	10.106
274.97	10.062
275.18	9.892
275.39	9.814
275.60	9.823
275.81	9.757
276.02	9.652
276.23	9.500
276.44	9.575
276.65	9.651
276.86	9.658
277.07	9.738
277.28	9.693
277.49	9.799
277.70	9.779
277.91	9.819
278.12	9.804
278.33	9.818
278.54	9.887
278.75	9.768
278.96	9.677
279.17	9.657
279.39	9.622
279.60	9.660
279.81	9.611
280.02	9.653
280.23	9.564
280.44	9.397
280.65	9.502
280.86	9.488
281.07	9.559
281.28	9.613
281.49	9.541
281.70	9.567
281.91	9.471
282.12	9.539
282.33	9.502
282.54	9.471
282.75	9.587
282.96	9.590
283.17	9.524
283.38	9.496
283.59	9.462
283.80	9.479
284.01	9.365
284.22	9.415
284.43	9.268
284.64	9.265
284.85	9.293
285.06	9.283
285.27	9.243
285.48	9.223
285.69	9.223
285.90	9.276
286.11	9.321
286.32	9.354
286.53	9.284
286.74	9.364
286.95	9.331
287.16	9.338
287.37	9.252
287.58	9.191
287.79	9.132
288.00	9.071
288.21	8.963
288.42	8.857
288.63	8.874
288.84	8.904
289.05	8.888
289.26	8.920
289.47	8.865
289.68	8.906
289.89	8.911
290.10	8.902
290.31	8.885
290.51	8.882
290.72	8.891
290.93	8.906
291.14	8.940
291.35	8.853
291.56	8.804
291.77	8.832
291.98	8.741
292.19	8.668
292.40	8.691
292.61	8.740
292.82	8.679
293.03	8.781
293.24	8.716
293.45	8.663
293.66	8.691
293.87	8.707
294.08	8.584
294.29	8.647
294.50	8.667
294.71	8.649
294.92	8.657
295.13	8.700
295.34	8.541
295.55	8.549
295.76	8.536
295.96	8.515
296.17	8.511
296.38	8.579
296.59	8.517
296.80	8.503
297.01	8.518
297.22	8.510
297.43	8.496
297.64	8.551
297.85	8.473
298.06	8.434
298.27	8.480
298.48	8.431
298.69	8.357
298.90	8.417
299.11	8.457
299.32	8.424
299.53	8.370
299.73	8.296
299.94	8.256
300.15	8.293
300.36	8.343
300.57	8.262
300.78	8.254
300.99	8.252
301.20	8.171
301.41	8.130
301.62	8.151
301.83	8.076
302.04	8.068
302.25	8.039
302.45	7.983
302.66	7.940
302.87	7.961
303.08	7.954
303.29	7.983
303.50	8.037
303.71	8.023
303.92	7.972
304.13	7.993
304.34	8.008
304.55	7.984
304.76	8.055
304.96	8.060
305.17	7.985
305.38	7.941
305.59	7.924
305.80	7.892
306.01	7.890
306.22	7.878
306.43	7.888
306.64	7.893
306.85	7.837
307.06	7.841
307.26	7.740
307.47	7.750
307.68	7.807
307.89	7.755
308.10	7.710
308.31	7.690
308.52	7.702
308.73	7.712
308.94	7.648
309.14	7.712
309.35	7.678
309.56	7.732
309.77	7.716
309.98	7.705
310.19	7.692
310.40	7.698
310.61	7.680
310.82	7.666
311.02	7.658
311.23	7.673
311.44	7.620
311.65	7.537
311.86	7.483
312.07	7.466
312.28	7.361
312.49	7.354
312.69	7.334
312.90	7.323
313.11	7.250
313.32	7.211
313.53	7.195
313.74	7.158
313.95	7.194
314.16	7.190
314.36	7.196
314.57	7.324
314.78	7.324
314.99	7.352
315.20	7.374
315.41	7.391
315.62	7.309
315.82	7.338
316.03	7.358
316.24	7.421
316.45	7.491
316.66	7.502
316.87	7.454
317.08	7.424
317.28	7.419
317.49	7.368
317.70	7.330
317.91	7.372
318.12	7.315
318.33	7.316
318.54	7.251
318.74	7.252
318.95	7.220
319.16	7.233
319.37	7.216
319.58	7.195
319.79	7.164
319.99	7.216
320.20	7.225
320.41	7.185
320.62	7.172
320.83	7.156
321.04	7.052
321.24	7.103
321.45	7.062
321.66	7.077
321.87	7.039
322.08	7.032
322.29	6.968
322.49	6.928
322.70	6.917
322.91	6.925
323.12	6.941
323.33	6.980
323.54	6.896
323.74	6.912
323.95	6.869
324.16	6.881
324.37	6.820
324.58	6.871
324.79	6.883
324.99	6.901
325.20	6.916
325.41	6.893
325.62	6.894
325.83	6.892
326.03	6.806
326.24	6.828
326.45	6.803
326.66	6.844
326.87	6.767
327.07	6.737
327.28	6.742
327.49	6.675
327.70	6.667
327.91	6.676
328.11	6.676
328.32	6.721
328.53	6.773
328.74	6.771
328.95	6.753
329.15	6.803
329.36	6.792
329.57	6.752
329.78	6.769
329.99	6.774
330.19	6.670
330.40	6.652
330.61	6.628
330.82	6.516
331.03	6.460
331.23	6.486
331.44	6.467
331.65	6.424
331.86	6.493
332.07	6.453
332.27	6.425
332.48	6.465
332.69	6.517
332.90	6.532
333.10	6.578
333.31	6.648
333.52	6.636
333.73	6.614
333.94	6.618
334.14	6.594
334.35	6.603
334.56	6.600
334.77	6.594
334.97	6.529
335.18	6.443
335.39	6.416
335.60	6.374
335.80	6.327
336.01	6.324
336.22	6.334
336.43	6.300
336.64	6.328
336.84	6.313
337.05	6.275
337.26	6.249
337.47	6.311
337.67	6.321
337.88	6.286
338.09	6.293
338.30	6.339
338.50	6.363
338.71	6.407
338.92	6.380
339.13	6.390
339.33	6.407
339.54	6.415
339.75	6.414
339.96	6.411
340.16	6.383
340.37	6.402
340.58	6.310
340.79	6.296
340.99	6.247
341.20	6.198
341.41	6.167
341.62	6.165
341.82	6.229
342.03	6.149
342.24	6.132
342.44	6.203
342.65	6.176
342.86	6.187
343.07	6.165
343.27	6.232
343.48	6.260
343.69	6.244
343.90	6.277
344.10	6.184
344.31	6.253
344.52	6.288
344.72	6.231
344.93	6.243
345.14	6.253
345.35	6.232
345.55	6.185
345.76	6.159
345.97	6.162
346.18	6.131
346.38	6.181
346.59	6.148
346.80	6.127
347.00	6.113
347.21	6.075
347.42	6.118
347.62	6.161
347.83	6.122
348.04	6.127
348.25	6.124
348.45	6.113
348.66	6.092
348.87	6.079
349.07	6.041
349.28	6.063
349.49	6.079
349.70	6.063
349.90	6.007
350.11	6.012
350.32	6.004
350.52	6.007
350.73	6.014
350.94	5.992
351.14	6.028
351.35	6.023
351.56	6.041
351.76	6.055
351.97	6.033
352.18	6.073
352.39	6.042
352.59	6.096
352.80	6.082
353.01	6.085
353.21	6.079
353.42	6.056
353.63	6.023
353.83	6.002
354.04	5.955
354.25	5.950
354.45	5.911
354.66	5.915
354.87	5.858
355.07	5.872
355.28	5.885
355.49	5.899
355.69	5.924
355.90	5.959
356.11	5.954
356.31	6.011
356.52	6.020
356.73	6.045
356.93	6.055
357.14	6.056
357.35	6.049
357.55	6.014
357.76	5.995
357.97	5.957
358.17	5.946
358.38	5.947
358.59	5.939
358.79	5.925
359.00	5.910
359.21	5.917
359.41	5.906
359.62	5.911
359.83	5.933
360.03	5.913
360.24	5.942
360.44	5.943
360.65	5.926
360.86	5.886
361.06	5.875
361.27	5.874
361.48	5.864
361.68	5.882
361.89	5.886
362.10	5.841
362.30	5.862
362.51	5.815
362.72	5.810
362.92	5.836
363.13	5.821
363.33	5.810
363.54	5.810
363.75	5.785
363.95	5.770
364.16	5.740
364.37	5.782
364.57	5.772
364.78	5.769
364.98	5.756
365.19	5.722
365.40	5.755
365.60	5.758
365.81	5.775
366.02	5.787
366.22	5.789
366.43	5.811
366.63	5.770
366.84	5.753
367.05	5.761
367.25	5.736
367.46	5.710
367.66	5.697
367.87	5.716
368.08	5.682
368.28	5.696
368.49	5.674
368.69	5.625
368.90	5.624
369.11	5.647
369.31	5.645
369.52	5.695
369.72	5.717
369.93	5.700
370.14	5.666
370.34	5.663
370.55	5.628
370.75	5.652
370.96	5.678
371.17	5.700
371.37	5.672
371.58	5.699
371.78	5.668
371.99	5.676
372.20	5.674
372.40	5.665
372.61	5.673
372.81	5.707
373.02	5.691
373.23	5.674
373.43	5.660
373.64	5.665
373.84	5.636
374.05	5.659
374.25	5.644
374.46	5.629
374.67	5.646
374.87	5.658
375.08	5.635
375.28	5.638
375.49	5.649
375.69	5.675
375.90	5.673
376.11	5.657
376.31	5.626
376.52	5.628
376.72	5.648
376.93	5.647
377.13	5.614
377.34	5.614
377.55	5.626
377.75	5.631
377.96	5.577
378.16	5.572
378.37	5.616
378.57	5.651
378.78	5.670
378.98	5.649
379.19	5.677
379.40	5.653
379.60	5.633
379.81	5.624
380.01	5.607
380.22	5.606
380.42	5.626
380.63	5.585
380.83	5.536
381.04	5.501
381.24	5.506
381.45	5.485
381.66	5.507
381.86	5.522
382.07	5.515
382.27	5.507
382.48	5.511
382.68	5.489
382.89	5.510
383.09	5.533
383.30	5.547
383.50	5.532
383.71	5.507
383.91	5.520
384.12	5.511
384.32	5.488
384.53	5.512
384.73	5.529
384.94	5.550
385.15	5.532
385.35	5.524
385.56	5.507
385.76	5.511
385.97	5.539
386.17	5.524
386.38	5.537
386.58	5.565
386.79	5.578
386.99	5.561
387.20	5.542
387.40	5.527
387.61	5.542
387.81	5.540
388.02	5.528
388.22	5.512
388.43	5.529
388.63	5.501
388.84	5.502
389.04	5.470
389.25	5.479
389.45	5.483
389.66	5.509
389.86	5.502
390.07	5.516
390.27	5.531
390.48	5.520
390.68	5.511
390.89	5.533
391.09	5.536
391.30	5.538
391.50	5.546
391.71	5.539
391.91	5.542
392.12	5.546
392.32	5.541
392.53	5.552
392.73	5.557
392.94	5.572
393.14	5.586
393.35	5.577
393.55	5.570
393.75	5.561
393.96	5.554
394.16	5.519
394.37	5.517
394.57	5.519
394.78	5.509
394.98	5.492
395.19	5.451
395.39	5.434
395.60	5.427
395.80	5.449
396.01	5.447
396.21	5.476
396.42	5.487
396.62	5.464
396.83	5.463
397.03	5.473
397.23	5.487
397.44	5.521
397.64	5.510
397.85	5.505
398.05	5.496
398.26	5.496
398.46	5.484
398.67	5.493
398.87	5.507
399.08	5.508
399.28	5.495
399.48	5.489
399.69	5.470
399.89	5.469
400.10	5.484
400.30	5.485
400.51	5.480
400.71	5.458
400.92	5.453
401.12	5.458
401.32	5.451
401.53	5.441
401.73	5.451
401.94	5.477
402.14	5.478
402.35	5.479
402.55	5.459
402.75	5.462
402.96	5.483
403.16	5.494
403.37	5.485
403.57	5.500
403.78	5.510
403.98	5.507
404.18	5.488
404.39	5.482
404.59	5.455
404.80	5.448
405.00	5.439
405.21	5.440
405.41	5.429
405.61	5.423
405.82	5.425
406.02	5.415
406.23	5.427
406.43	5.418
406.63	5.436
406.84	5.454
407.04	5.484
407.25	5.488
407.45	5.492
407.65	5.485
407.86	5.485
408.06	5.449
408.27	5.454
408.47	5.447
408.67	5.453
408.88	5.437
409.08	5.434
409.29	5.407
409.49	5.421
409.69	5.403
409.90	5.417
410.10	5.412
410.31	5.444
410.51	5.462
410.71	5.464
410.92	5.448
411.12	5.449
411.33	5.458
411.53	5.465
411.73	5.450
411.94	5.472
412.14	5.462
412.34	5.474
412.55	5.480
412.75	5.471
412.96	5.465
413.16	5.489
413.36	5.503
413.57	5.481
413.77	5.476
413.97	5.494
414.18	5.485
414.38	5.489
414.59	5.489
414.79	5.484
414.99	5.476
415.20	5.457
415.40	5.470
415.60	5.462
415.81	5.455
416.01	5.467
416.21	5.447
416.42	5.444
416.62	5.443
416.83	5.433
417.03	5.418
417.23	5.410
417.44	5.406
417.64	5.383
417.84	5.383
418.05	5.387
418.25	5.384
418.45	5.384
418.66	5.389
418.86	5.378
419.06	5.388
419.27	5.385
419.47	5.388
419.67	5.398
419.88	5.406
420.08	5.391
420.28	5.384
420.49	5.385
420.69	5.379
420.89	5.359
421.10	5.368
421.30	5.356
421.50	5.352
421.71	5.348
421.91	5.343
422.11	5.342
422.32	5.348
422.52	5.350
422.72	5.361
422.93	5.368
423.13	5.387
423.33	5.388
423.54	5.392
423.74	5.389
423.94	5.401
424.15	5.394
424.35	5.395
424.55	5.387
424.76	5.396
424.96	5.380
425.16	5.380
425.36	5.368
425.57	5.360
425.77	5.356
425.97	5.361
426.18	5.363
426.38	5.369
426.58	5.376
426.79	5.394
426.99	5.395
427.19	5.412
427.39	5.417
427.60	5.418
427.80	5.438
428.00	5.457
428.21	5.473
428.41	5.461
428.61	5.469
428.82	5.468
429.02	5.468
429.22	5.476
429.42	5.470
429.63	5.436
429.83	5.446
430.03	5.432
430.24	5.424
430.44	5.421
430.64	5.423
430.84	5.413
431.05	5.395
431.25	5.403
431.45	5.395
431.65	5.397
431.86	5.418
432.06	5.427
432.26	5.438
432.47	5.451
432.67	5.433
432.87	5.441
433.07	5.453
433.28	5.469
433.48	5.468
433.68	5.463
433.88	5.466
434.09	5.486
434.29	5.481
434.49	5.482
434.69	5.463
434.90	5.482
435.10	5.474
435.30	5.474
435.51	5.475
435.71	5.470
435.91	5.484
436.11	5.485
436.32	5.465
436.52	5.469
436.72	5.473
436.92	5.479
437.13	5.476
437.33	5.476
437.53	5.474
437.73	5.460
437.93	5.458
438.14	5.433
438.34	5.413
438.54	5.413
438.74	5.405
438.95	5.374
439.15	5.383
439.35	5.382
439.55	5.376
439.76	5.377
439.96	5.402
440.16	5.405
440.36	5.425
440.56	5.435
440.77	5.427
440.97	5.423
441.17	5.437
441.37	5.433
441.58	5.443
441.78	5.463
441.98	5.470
442.18	5.444
442.38	5.439
442.59	5.425
442.79	5.419
442.99	5.439
443.19	5.441
443.40	5.463
443.60	5.456
443.80	5.446
444.00	5.430
444.20	5.416
444.41	5.414
444.61	5.426
444.81	5.435
445.01	5.439
445.21	5.443
445.42	5.453
445.62	5.441
445.82	5.437
446.02	5.448
446.22	5.439
446.43	5.444
446.63	5.442
446.83	5.429
447.03	5.424
447.23	5.434
447.44	5.431
447.64	5.425
447.84	5.430
448.04	5.436
448.24	5.425
448.44	5.452
448.65	5.444
448.85	5.451
449.05	5.479
449.25	5.486
449.45	5.493
449.65	5.504
449.86	5.516
450.06	5.520
450.26	5.525
450.46	5.537
450.66	5.526
450.87	5.545
451.07	5.553
451.27	5.540
451.47	5.543
451.67	5.523
451.87	5.524
452.08	5.518
452.28	5.505
452.48	5.509
452.68	5.498
452.88	5.494
453.08	5.495
453.28	5.496
453.49	5.499
453.69	5.517
453.89	5.520
454.09	5.516
454.29	5.517
454.49	5.542
454.70	5.539
454.90	5.540
455.10	5.540
455.30	5.530
455.50	5.540
455.70	5.545
455.90	5.525
456.11	5.509
456.31	5.495
456.51	5.500
456.71	5.472
456.91	5.488
457.11	5.496
457.31	5.501
457.51	5.509
457.72	5.489
457.92	5.478
458.12	5.470
458.32	5.485
458.52	5.500
458.72	5.497
458.92	5.496
459.12	5.484
459.33	5.471
459.53	5.481
459.73	5.492
459.93	5.499
460.13	5.508
460.33	5.513
460.53	5.511
460.73	5.493
460.93	5.503
461.14	5.520
461.34	5.542
461.54	5.566
461.74	5.570
461.94	5.569
462.14	5.577
462.34	5.585
462.54	5.587
462.74	5.587
462.95	5.600
463.15	5.600
463.35	5.594
463.55	5.580
463.75	5.563
463.95	5.558
464.15	5.558
464.35	5.555
464.55	5.542
464.75	5.554
464.95	5.566
465.16	5.577
465.36	5.569
465.56	5.557
465.76	5.559
465.96	5.570
466.16	5.584
466.36	5.582
466.56	5.579
466.76	5.583
466.96	5.594
467.16	5.602
467.36	5.595
467.57	5.598
467.77	5.613
467.97	5.620
468.17	5.623
468.37	5.601
468.57	5.617
468.77	5.614
468.97	5.617
469.17	5.614
469.37	5.614
469.57	5.617
469.77	5.627
469.97	5.623
470.17	5.621
470.37	5.615
470.57	5.634
470.78	5.607
470.98	5.630
471.18	5.633
471.38	5.629
471.58	5.638
471.78	5.650
471.98	5.643
472.18	5.654
472.38	5.653
472.58	5.677
472.78	5.675
472.98	5.697
473.18	5.682
473.38	5.681
473.58	5.691
473.78	5.676
473.98	5.685
474.18	5.693
474.38	5.691
474.58	5.700
474.78	5.698
474.98	5.705
475.18	5.703
475.38	5.712
475.58	5.704
475.79	5.701
475.99	5.705
476.19	5.697
476.39	5.691
476.59	5.692
476.79	5.686
476.99	5.671
477.19	5.665
477.39	5.658
477.59	5.661
477.79	5.671
477.99	5.658
478.19	5.660
478.39	5.659
478.59	5.662
478.79	5.660
478.99	5.661
479.19	5.670
479.39	5.682
479.59	5.701
479.79	5.707
479.99	5.707
480.19	5.709
480.39	5.714
480.59	5.714
480.79	5.717
480.99	5.719
481.19	5.726
481.39	5.724
481.59	5.718
481.79	5.714
481.99	5.703
482.19	5.710
482.39	5.719
482.59	5.719
482.79	5.724
482.99	5.731
483.19	5.775
483.39	5.866
483.59	5.935
483.79	5.936
483.99	5.909
484.19	5.886
484.39	5.877
484.58	5.873
484.78	5.872
484.98	5.873
485.18	5.877
485.38	5.859
485.58	5.782
485.78	5.704
485.98	5.685
486.18	5.704
486.38	5.734
486.58	5.749
486.78	5.757
486.98	5.764
487.18	5.771
487.38	5.780
487.58	5.783
487.78	5.790
487.98	5.794
488.18	5.795
488.38	5.790
488.58	5.786
488.78	5.781
488.98	5.783
489.18	5.785
489.37	5.790
489.57	5.787
489.77	5.788
489.97	5.787
490.17	5.795
490.37	5.794
490.57	5.801
490.77	5.817
490.97	5.827
491.17	5.829
491.37	5.842
491.57	5.846
491.77	5.851
491.97	5.851
492.17	5.854
492.37	5.851
492.56	5.852
492.76	5.856
492.96	5.854
493.16	5.860
493.36	5.866
493.56	5.869
493.76	5.869
493.96	5.871
494.16	5.872
494.36	5.877
494.56	5.888
494.76	5.902
494.95	5.913
495.15	5.917
495.35	5.918
495.55	5.926
495.75	5.921
495.95	5.927
496.15	5.945
496.35	5.950
496.55	5.953
496.75	5.949
496.95	5.957
497.14	5.965
497.34	5.968
497.54	5.981
497.74	5.984
497.94	5.986
498.14	5.993
498.34	5.984
498.54	6.000
498.74	6.013
498.93	6.026
499.13	6.025
499.33	6.032
499.53	6.040
499.73	6.044
499.93	6.046
500.13	6.063
500.33	6.069
500.53	6.081
500.72	6.081
500.92	6.079
501.12	6.079
501.32	6.073
501.52	6.066
501.72	6.078
501.92	6.065
502.12	6.065
502.31	6.070
502.51	6.063
502.71	6.065
502.91	6.056
503.11	6.058
503.31	6.068
503.51	6.079
503.70	6.083
503.90	6.082
504.10	6.099
504.30	6.107
504.50	6.109
504.70	6.124
504.90	6.135
505.09	6.148
505.29	6.154
505.49	6.154
505.69	6.170
505.89	6.173
506.09	6.175
506.29	6.180
506.48	6.191
506.68	6.194
506.88	6.186
507.08	6.180
507.28	6.186
507.48	6.194
507.67	6.192
507.87	6.187
508.07	6.209
508.27	6.209
508.47	6.206
508.67	6.211
508.86	6.225
509.06	6.232
509.26	6.241
509.46	6.244
509.66	6.246
509.85	6.253
510.05	6.264
510.25	6.257
510.45	6.280
510.65	6.289
510.85	6.287
511.04	6.282
511.24	6.293
511.44	6.302
511.64	6.305
511.84	6.305
512.03	6.316
512.23	6.324
512.43	6.325
512.63	6.310
512.83	6.319
513.02	6.324
513.22	6.327
513.42	6.340
513.62	6.337
513.82	6.354
514.01	6.367
514.21	6.374
514.41	6.382
514.61	6.399
514.81	6.413
515.00	6.399
515.20	6.413
515.40	6.415
515.60	6.411
515.80	6.421
515.99	6.414
516.19	6.409
516.39	6.414
516.59	6.412
516.78	6.412
516.98	6.422
517.18	6.428
517.38	6.434
517.58	6.437
517.77	6.447
517.97	6.452
518.17	6.451
518.37	6.465
518.56	6.466
518.76	6.471
518.96	6.473
519.16	6.467
519.36	6.487
519.55	6.488
519.75	6.499
519.95	6.499
520.15	6.504
520.34	6.526
520.54	6.528
520.74	6.532
520.94	6.532
521.13	6.546
521.33	6.562
521.53	6.561
521.73	6.568
521.92	6.570
522.12	6.587
522.32	6.590
522.52	6.590
522.71	6.601
522.91	6.616
523.11	6.633
523.31	6.626
523.50	6.627
523.70	6.645
523.90	6.650
524.09	6.663
524.29	6.660
524.49	6.685
524.69	6.700
524.88	6.697
525.08	6.694
525.28	6.699
525.48	6.712
525.67	6.712
525.87	6.709
526.07	6.712
526.26	6.716
526.46	6.727
526.66	6.727
526.86	6.722
527.05	6.730
527.25	6.729
527.45	6.733
527.64	6.737
527.84	6.757
528.04	6.771
528.24	6.794
528.43	6.814
528.63	6.818
528.83	6.817
529.02	6.820
529.22	6.823
529.42	6.832
529.62	6.833
529.81	6.838
530.01	6.838
530.21	6.835
530.40	6.825
530.60	6.806
530.80	6.807
530.99	6.808
531.19	6.814
531.39	6.819
531.58	6.829
531.78	6.846
531.98	6.855
532.18	6.861
532.37	6.875
532.57	6.888
532.77	6.910
532.96	6.913
533.16	6.919
533.36	6.936
533.55	6.948
533.75	6.951
533.95	6.950
534.14	6.957
534.34	6.967
534.54	6.979
534.73	6.989
534.93	6.988
535.13	6.999
535.32	7.008
535.52	7.004
535.72	7.010
535.91	7.023
536.11	7.025
536.31	7.029
536.50	7.037
536.70	7.032
536.90	7.035
537.09	7.049
537.29	7.057
537.48	7.075
537.68	7.082
537.88	7.095
538.07	7.098
538.27	7.118
538.47	7.133
538.66	7.143
538.86	7.155
539.06	7.167
539.25	7.187
539.45	7.198
539.65	7.211
539.84	7.232
540.04	7.235
540.23	7.246
540.43	7.267
540.63	7.265
540.82	7.271
541.02	7.284
541.22	7.289
541.41	7.281
541.61	7.283
541.80	7.281
542.00	7.284
542.20	7.283
542.39	7.290
542.59	7.285
542.79	7.303
542.98	7.304
543.18	7.306
543.37	7.315
543.57	7.326
543.77	7.341
543.96	7.350
544.16	7.356
544.35	7.378
544.55	7.392
544.75	7.406
544.94	7.399
545.14	7.420
545.33	7.438
545.53	7.459
545.73	7.472
545.92	7.478
546.12	7.487
546.31	7.496
546.51	7.501
546.71	7.507
546.90	7.509
547.10	7.529
547.29	7.538
547.49	7.550
547.69	7.555
547.88	7.570
548.08	7.578
548.27	7.585
548.47	7.592
548.66	7.603
548.86	7.610
549.06	7.635
549.25	7.655
549.45	7.668
549.64	7.672
549.84	7.679
550.03	7.691
550.23	7.712
550.43	7.738
550.62	7.766
550.82	7.786
551.01	7.801
551.21	7.807
551.40	7.807
551.60	7.823
551.80	7.836
551.99	7.847
552.19	7.861
552.38	7.858
552.58	7.857
552.77	7.853
552.97	7.861
553.16	7.867
553.36	7.876
553.56	7.896
553.75	7.903
553.95	7.914
554.14	7.924
554.34	7.939
554.53	7.950
554.73	7.964
554.92	7.976
555.12	7.983
555.31	7.992
555.51	8.001
555.70	7.994
555.90	7.995
556.10	8.007
556.29	8.013
556.49	8.018
556.68	8.045
556.88	8.069
557.07	8.085
557.27	8.107
557.46	8.110
557.66	8.124
557.85	8.138
558.05	8.150
558.24	8.158
558.44	8.184
558.63	8.184
558.83	8.188
559.02	8.198
559.22	8.204
559.41	8.203
559.61	8.224
559.80	8.237
560.00	8.245
560.19	8.258
560.39	8.274
560.58	8.280
560.78	8.302
560.97	8.310
561.17	8.319
561.36	8.336
561.56	8.347
561.75	8.358
561.95	8.366
562.14	8.388
562.34	8.406
562.53	8.407
562.73	8.416
562.92	8.424
563.12	8.450
563.31	8.428
563.51	8.437
563.70	8.447
563.90	8.467
564.09	8.471
564.29	8.485
564.48	8.494
564.68	8.524
564.87	8.536
565.07	8.536
565.26	8.530
565.45	8.570
565.65	8.572
565.84	8.601
566.04	8.600
566.23	8.622
566.43	8.642
566.62	8.636
566.82	8.643
567.01	8.647
567.21	8.662
567.40	8.668
567.60	8.681
567.79	8.695
567.98	8.705
568.18	8.724
568.37	8.736
568.57	8.734
568.76	8.773
568.96	8.771
569.15	8.796
569.35	8.824
569.54	8.847
569.73	8.849
569.93	8.866
570.12	8.867
570.32	8.878
570.51	8.889
570.71	8.907
570.90	8.912
571.09	8.934
571.29	8.937
571.48	8.940
571.68	8.944
571.87	8.949
572.07	8.964
572.26	8.975
572.45	8.991
572.65	9.003
572.84	9.006
573.04	9.017
573.23	9.030
573.43	9.041
573.62	9.062
573.81	9.075
574.01	9.096
574.20	9.097
574.40	9.111
574.59	9.113
574.78	9.102
574.98	9.119
575.17	9.133
575.37	9.136
575.56	9.149
575.75	9.146
575.95	9.173
576.14	9.181
576.34	9.194
576.53	9.207
576.72	9.228
576.92	9.266
577.11	9.276
577.31	9.291
577.50	9.295
577.69	9.311
577.89	9.330
578.08	9.330
578.28	9.347
578.47	9.368
578.66	9.371
578.86	9.384
579.05	9.399
579.24	9.416
579.44	9.430
579.63	9.446
579.83	9.452
580.02	9.467
580.21	9.481
580.41	9.490
580.60	9.500
580.79	9.520
580.99	9.539
581.18	9.548
581.38	9.559
581.57	9.579
581.76	9.593
581.96	9.616
582.15	9.629
582.34	9.633
582.54	9.646
582.73	9.662
582.92	9.664
583.12	9.672
583.31	9.699
583.50	9.703
583.70	9.711
583.89	9.720
584.08	9.727
584.28	9.741
584.47	9.751
584.66	9.775
584.86	9.792
585.05	9.824
585.24	9.827
585.44	9.831
585.63	9.869
585.82	9.872
586.02	9.900
586.21	9.927
586.40	9.939
586.60	9.968
586.79	9.969
586.98	9.962
587.18	9.976
587.37	9.991
587.56	9.993
587.76	9.992
587.95	10.006
588.14	10.024
588.34	10.022
588.53	10.038
588.72	10.057
588.92	10.086
589.11	10.121
589.30	10.129
589.50	10.155
589.69	10.172
589.88	10.190
590.07	10.200
590.27	10.205
590.46	10.223
590.65	10.239
590.85	10.255
591.04	10.263
591.23	10.277
591.43	10.280
591.62	10.279
591.81	10.294
592.00	10.295
592.20	10.318
592.39	10.337
592.58	10.350
592.78	10.347
592.97	10.347
593.16	10.349
593.35	10.359
593.55	10.361
593.74	10.370
593.93	10.391
594.13	10.400
594.32	10.423
594.51	10.441
594.70	10.454
594.90	10.467
595.09	10.469
595.28	10.483
595.47	10.480
595.67	10.512
595.86	10.529
596.05	10.540
596.24	10.568
596.44	10.567
596.63	10.558
596.82	10.560
597.02	10.571
597.21	10.579
597.40	10.594
597.59	10.602
597.79	10.598
597.98	10.602
598.17	10.607
598.36	10.602
598.56	10.614
598.75	10.640
598.94	10.663
599.13	10.687
599.32	10.715
599.52	10.721
599.71	10.747
599.90	10.771
600.09	10.796
600.29	10.804
600.48	10.811
600.67	10.814
600.86	10.817
601.06	10.816
601.25	10.835
601.44	10.847
601.63	10.872
601.82	10.891
602.02	10.922
602.21	10.935
602.40	10.966
602.59	11.001
602.79	11.029
602.98	11.060
603.17	11.080
603.36	11.087
603.55	11.083
603.75	11.082
603.94	11.088
604.13	11.072
604.32	11.078
604.51	11.060
604.71	11.054
604.90	11.056
605.09	11.048
605.28	11.052
605.47	11.068
605.67	11.090
605.86	11.106
606.05	11.113
606.24	11.143
606.43	11.160
606.63	11.186
606.82	11.199
607.01	11.209
607.20	11.226
607.39	11.228
607.59	11.216
607.78	11.239
607.97	11.253
608.16	11.261
608.35	11.269
608.54	11.274
608.74	11.290
608.93	11.314
609.12	11.319
609.31	11.326
609.50	11.366
609.69	11.392
609.89	11.396
610.08	11.405
610.27	11.423
610.46	11.435
610.65	11.466
610.84	11.476
611.04	11.496
611.23	11.521
611.42	11.549
611.61	11.539
611.80	11.567
611.99	11.579
612.19	11.589
612.38	11.608
612.57	11.621
612.76	11.617
612.95	11.647
613.14	11.653
613.33	11.660
613.53	11.681
613.72	11.724
613.91	11.701
614.10	11.726
614.29	11.748
614.48	11.757
614.67	11.785
614.86	11.807
615.06	11.794
615.25	11.806
615.44	11.808
615.63	11.815
615.82	11.808
616.01	11.839
616.20	11.844
616.39	11.861
616.59	11.865
616.78	11.853
616.97	11.875
617.16	11.901
617.35	11.921
617.54	11.948
617.73	11.965
617.92	11.996
618.12	12.001
618.31	12.013
618.50	12.027
618.69	12.052
618.88	12.078
619.07	12.078
619.26	12.089
619.45	12.106
619.64	12.118
619.83	12.125
620.03	12.138
620.22	12.166
620.41	12.180
620.60	12.172
620.79	12.181
620.98	12.185
621.17	12.205
621.36	12.220
621.55	12.243
621.74	12.271
621.93	12.270
622.12	12.270
622.32	12.261
622.51	12.263
622.70	12.281
622.89	12.287
623.08	12.307
623.27	12.317
623.46	12.323
623.65	12.318
623.84	12.323
624.03	12.343
624.22	12.370
624.41	12.394
624.60	12.411
624.79	12.447
624.99	12.483
625.18	12.493
625.37	12.510
625.56	12.530
625.75	12.554
625.94	12.572
626.13	12.590
626.32	12.581
626.51	12.607
626.70	12.612
626.89	12.602
627.08	12.593
627.27	12.604
627.46	12.588
627.65	12.585
627.84	12.578
628.03	12.572
628.22	12.569
628.41	12.600
628.60	12.592
628.79	12.624
628.98	12.634
629.17	12.626
629.37	12.650
629.56	12.677
629.75	12.698
629.94	12.707
630.13	12.729
630.32	12.744
630.51	12.746
630.70	12.749
630.89	12.749
631.08	12.777
631.27	12.793
631.46	12.803
631.65	12.824
631.84	12.842
632.03	12.852
632.22	12.868
632.41	12.893
632.60	12.897
632.79	12.937
632.98	12.941
633.17	12.962
633.36	12.990
633.55	13.002
633.74	13.002
633.93	13.028
634.12	13.068
634.31	13.081
634.50	13.078
634.69	13.099
634.88	13.099
635.07	13.118
635.26	13.114
635.45	13.129
635.64	13.128
635.83	13.164
636.02	13.170
636.21	13.185
636.40	13.190
636.59	13.215
636.78	13.230
636.96	13.247
637.15	13.265
637.34	13.298
637.53	13.304
637.72	13.331
637.91	13.343
638.10	13.338
638.29	13.333
638.48	13.374
638.67	13.381
638.86	13.388
639.05	13.406
639.24	13.429
639.43	13.447
639.62	13.468
639.81	13.472
640.00	13.481
640.19	13.523
640.38	13.562
640.57	13.544
640.76	13.572
640.95	13.598
641.14	13.603
641.32	13.637
641.51	13.634
641.70	13.646
641.89	13.676
642.08	13.681
642.27	13.679
642.46	13.679
642.65	13.688
642.84	13.717
643.03	13.748
643.22	13.760
643.41	13.766
643.60	13.800
643.79	13.843
643.98	13.833
644.16	13.856
644.35	13.863
644.54	13.870
644.73	13.889
644.92	13.917
645.11	13.910
645.30	13.947
645.49	13.932
645.68	13.914
645.87	13.893
646.06	13.942
646.24	13.942
646.43	13.961
646.62	13.966
646.81	13.998
647.00	13.976
647.19	13.992
647.38	14.008
647.57	14.018
647.76	14.051
647.95	14.074
648.13	14.069
648.32	14.104
648.51	14.133
648.70	14.143
648.89	14.151
649.08	14.177
649.27	14.181
649.46	14.179
649.65	14.196
649.83	14.208
650.02	14.210
650.21	14.237
650.40	14.238
650.59	14.244
650.78	14.263
650.97	14.288
651.16	14.280
651.34	14.291
651.53	14.301
651.72	14.318
651.91	14.316
652.10	14.357
652.29	14.338
652.48	14.360
652.66	14.343
652.85	14.357
653.04	14.358
653.23	14.379
653.42	14.383
653.61	14.393
653.80	14.387
653.98	14.408
654.17	14.411
654.36	14.449
654.55	14.454
654.74	14.492
654.93	14.517
655.11	14.520
655.30	14.511
655.49	14.548
655.68	14.569
655.87	14.601
656.06	14.607
656.24	14.626
656.43	14.638
656.62	14.656
656.81	14.680
657.00	14.700
657.19	14.728
657.37	14.744
657.56	14.756
657.75	14.700
657.94	14.744
658.13	14.761
658.31	14.759
658.50	14.763
658.69	14.777
658.88	14.798
659.07	14.794
659.26	14.796
659.44	14.808
659.63	14.825
659.82	14.893
660.01	14.880
660.20	14.890
660.38	14.909
660.57	14.937
660.76	14.927
660.95	14.937
661.14	14.952
661.32	14.947
661.51	14.976
661.70	14.979
661.89	14.992
662.08	15.005
662.26	15.035
662.45	15.029
662.64	15.020
662.83	15.075
663.01	15.083
663.20	15.122
663.39	15.158
663.58	15.161
663.77	15.164
663.95	15.183
664.14	15.209
664.33	15.213
664.52	15.248
664.70	15.268
664.89	15.257
665.08	15.250
665.27	15.248
665.45	15.272
665.64	15.297
665.83	15.311
666.02	15.307
666.20	15.291
666.39	15.300
666.58	15.319
666.77	15.336
666.95	15.342
667.14	15.356
667.33	15.356
667.52	15.361
667.70	15.380
667.89	15.382
668.08	15.413
668.27	15.442
668.45	15.448
668.64	15.454
668.83	15.460
669.02	15.457
669.20	15.482
669.39	15.477
669.58	15.490
669.77	15.504
669.95	15.525
670.14	15.525
670.33	15.532
670.51	15.566
670.70	15.579
670.89	15.610
671.08	15.647
671.26	15.657
671.45	15.693
671.64	15.714
671.82	15.746
672.01	15.799
672.20	15.821
672.39	15.846
672.57	15.872
672.76	15.878
672.95	15.847
673.13	15.830
673.32	15.850
673.51	15.872
673.70	15.847
673.88	15.850
674.07	15.822
674.26	15.831
674.44	15.848
674.63	15.825
674.82	15.852
675.00	15.879
675.19	15.914
675.38	15.925
675.56	15.930
675.75	15.966
675.94	15.950
676.12	15.955
676.31	15.952
676.50	15.930
676.69	15.951
676.87	15.985
677.06	15.966
677.25	15.983
677.43	15.999
677.62	16.019
677.81	16.057
677.99	16.097
678.18	16.123
678.37	16.152
678.55	16.191
678.74	16.200
678.93	16.175
679.11	16.196
679.30	16.179
679.48	16.189
679.67	16.174
679.86	16.163
680.04	16.168
680.23	16.177
680.42	16.178
680.60	16.179
680.79	16.187
680.98	16.222
681.16	16.264
681.35	16.300
681.54	16.273
681.72	16.308
681.91	16.331
682.10	16.340
682.28	16.352
682.47	16.355
682.65	16.377
682.84	16.413
683.03	16.407
683.21	16.408
683.40	16.402
683.59	16.450
683.77	16.449
683.96	16.460
684.14	16.467
684.33	16.482
684.52	16.545
684.70	16.540
684.89	16.524
685.07	16.518
685.26	16.521
685.45	16.541
685.63	16.533
685.82	16.545
686.00	16.543
686.19	16.585
686.38	16.604
686.56	16.604
686.75	16.639
686.93	16.634
687.12	16.657
687.31	16.668
687.49	16.682
687.68	16.708
687.86	16.696
688.05	16.711
688.24	16.695
688.42	16.707
688.61	16.684
688.79	16.678
688.98	16.718
689.17	16.737
689.35	16.750
689.54	16.758
689.72	16.755
689.91	16.795
690.09	16.805
690.28	16.817
690.47	16.789
690.65	16.811
690.84	16.838
691.02	16.815
691.21	16.800
691.39	16.825
691.58	16.861
691.76	16.875
691.95	16.877
692.14	16.884
692.32	16.885
692.51	16.920
692.69	16.950
692.88	16.943
693.06	16.969
693.25	16.985
693.43	17.021
693.62	17.014
693.81	17.035
693.99	17.072
694.18	17.100
694.36	17.092
694.55	17.111
694.73	17.109
694.92	17.097
695.10	17.101
695.29	17.145
695.47	17.126
695.66	17.142
695.84	17.154
696.03	17.135
696.21	17.141
696.40	17.173
696.59	17.194
696.77	17.213
696.96	17.256
697.14	17.286
697.33	17.297
697.51	17.303
697.70	17.329
697.88	17.358
698.07	17.369
698.25	17.376
698.44	17.415
698.62	17.402
698.81	17.378
698.99	17.400
699.18	17.395
699.36	17.379
699.55	17.369
699.73	17.328
699.92	17.298
700.10	17.288
700.29	17.292
700.47	17.269
700.66	17.289
700.84	17.318
701.03	17.320
701.21	17.320
701.40	17.331
701.58	17.369
701.77	17.412
701.95	17.448
702.13	17.482
702.32	17.521
702.50	17.548
702.69	17.560
702.87	17.541
703.06	17.542
703.24	17.589
703.43	17.600
703.61	17.634
703.80	17.665
703.98	17.665
704.17	17.693
704.35	17.664
704.54	17.685
704.72	17.669
704.90	17.686
705.09	17.700
705.27	17.716
705.46	17.765
705.64	17.742
705.83	17.734
706.01	17.772
706.20	17.750
706.38	17.792
706.56	17.815
706.75	17.850
706.93	17.901
707.12	17.926
707.30	17.956
707.49	17.991
707.67	18.020
707.86	18.043
708.04	18.063
708.22	18.087
708.41	18.101
708.59	18.081
708.78	18.077
708.96	18.089
709.14	18.100
709.33	18.102
709.51	18.071
709.70	18.096
709.88	18.102
710.07	18.124
710.25	18.167
710.43	18.146
710.62	18.163
710.80	18.208
710.99	18.214
711.17	18.213
711.35	18.213
711.54	18.218
711.72	18.216
711.91	18.265
712.09	18.229
712.27	18.205
712.46	18.249
712.64	18.247
712.83	18.255
713.01	18.284
713.19	18.311
713.38	18.322
713.56	18.367
713.75	18.367
713.93	18.388
714.11	18.446
714.30	18.511
714.48	18.506
714.66	18.528
714.85	18.520
715.03	18.540
715.22	18.525
715.40	18.525
715.58	18.534
715.77	18.585
715.95	18.602
716.13	18.627
716.32	18.590
716.50	18.588
716.68	18.612
716.87	18.654
717.05	18.636
717.24	18.657
717.42	18.676
717.60	18.679
717.79	18.651
717.97	18.634
718.15	18.618
718.34	18.645
718.52	18.723
718.70	18.720
718.89	18.684
719.07	18.725
719.25	18.715
719.44	18.741
719.62	18.751
719.80	18.758
719.99	18.747
720.17	18.752
720.35	18.782
720.54	18.718
720.72	18.732
720.90	18.780
721.09	18.779
721.27	18.833
721.45	18.875
721.64	18.846
721.82	18.893
722.00	18.920
722.19	18.920
722.37	18.921
722.55	18.965
722.74	19.042
722.92	19.051
723.10	19.050
723.28	19.069
723.47	19.080
723.65	19.148
723.83	19.174
724.02	19.156
724.20	19.213
724.38	19.208
724.57	19.217
724.75	19.177
724.93	19.192
725.11	19.200
725.30	19.197
725.48	19.195
725.66	19.207
725.85	19.197
726.03	19.264
726.21	19.256
726.39	19.306
726.58	19.336
726.76	19.357
726.94	19.415
727.13	19.436
727.31	19.489
727.49	19.520
727.67	19.524
727.86	19.552
728.04	19.594
728.22	19.597
728.40	19.614
728.59	19.617
728.77	19.624
728.95	19.611
729.13	19.631
729.32	19.621
729.50	19.642
729.68	19.640
729.86	19.682
730.05	19.685
730.23	19.703
730.41	19.703
730.59	19.692
730.78	19.713
730.96	19.739
731.14	19.768
731.32	19.765
731.51	19.729
731.69	19.781
731.87	19.738
732.05	19.718
732.24	19.728
732.42	19.741
732.60	19.750
732.78	19.755
732.97	19.717
733.15	19.692
733.33	19.708
733.51	19.719
733.69	19.706
733.88	19.723
734.06	19.709
734.24	19.695
734.42	19.709
734.60	19.708
734.79	19.731
734.97	19.758
735.15	19.809
735.33	19.796
735.52	19.792
735.70	19.771
735.88	19.756
736.06	19.791
736.24	19.839
736.43	19.862
736.61	19.893
736.79	19.904
736.97	19.930
737.15	19.896
737.34	19.935
737.52	19.991
737.70	20.043
737.88	20.092
738.06	20.056
738.24	20.118
738.43	20.094
738.61	20.133
738.79	20.186
738.97	20.229
739.15	20.252
739.33	20.282
739.52	20.303
739.70	20.311
739.88	20.321
740.06	20.354
740.24	20.290
740.42	20.287
740.61	20.261
740.79	20.240
740.97	20.224
741.15	20.271
741.33	20.299
741.51	20.276
741.70	20.278
741.88	20.321
742.06	20.377
742.24	20.432
742.42	20.481
742.60	20.542
742.78	20.564
742.97	20.545
743.15	20.528
743.33	20.499
743.51	20.536
743.69	20.585
743.87	20.574
744.05	20.556
744.24	20.585
744.42	20.575
744.60	20.549
744.78	20.517
744.96	20.586
745.14	20.609
745.32	20.657
745.50	20.661
745.69	20.670
745.87	20.724
746.05	20.727
746.23	20.710
746.41	20.694
746.59	20.709
746.77	20.769
746.95	20.743
747.13	20.695
747.32	20.668
747.50	20.712
747.68	20.738
747.86	20.727
748.04	20.791
748.22	20.862
748.40	20.957
748.58	21.030
748.76	21.018
748.94	21.020
749.13	21.114
749.31	21.130
749.49	21.068
749.67	21.056
749.85	21.102
750.03	21.114
750.21	21.079
750.39	21.097
750.57	21.091
750.75	21.094
750.93	21.111
751.11	21.116
751.30	21.159
751.48	21.260
751.66	21.252
751.84	21.232
752.02	21.218
752.20	21.300
752.38	21.305
752.56	21.309
752.74	21.358
752.92	21.383
753.10	21.425
753.28	21.431
753.46	21.374
753.64	21.388
753.82	21.390
754.00	21.394
754.18	21.373
754.37	21.348
754.55	21.387
754.73	21.340
754.91	21.335
755.09	21.285
755.27	21.308
755.45	21.320
755.63	21.331
755.81	21.325
755.99	21.375
756.17	21.362
756.35	21.384
756.53	21.383
756.71	21.464
756.89	21.511
757.07	21.549
757.25	21.529
757.43	21.597
757.61	21.586
757.79	21.571
757.97	21.544
758.15	21.552
758.33	21.576
758.51	21.575
758.69	21.547
758.87	21.575
759.05	21.559
759.23	21.546
759.41	21.588
759.59	21.636
759.77	21.664
759.95	21.688
760.13	21.672
760.31	21.673
760.49	21.700
760.67	21.730
760.85	21.736
761.03	21.712
761.21	21.796
761.39	21.795
761.57	21.852
761.75	21.846
761.93	21.877
762.11	21.895
762.29	21.875
762.47	21.858
762.65	21.873
762.83	21.862
763.01	21.911
763.19	21.945
763.37	22.015
763.55	22.028
763.73	22.139
763.91	22.172
764.09	22.199
764.27	22.233
764.45	22.203
764.63	22.191
764.81	22.198
764.99	22.213
765.16	22.171
765.34	22.121
765.52	22.097
765.70	22.035
765.88	22.007
766.06	21.953
766.24	21.958
766.42	21.974
766.60	21.983
766.78	21.965
766.96	22.011
767.14	22.026
767.32	22.053
767.50	22.031
767.68	22.071
767.86	22.064
768.03	22.170
768.21	22.163
768.39	22.170
768.57	22.156
768.75	22.212
768.93	22.172
769.11	22.216
769.29	22.222
769.47	22.254
769.65	22.253
769.83	22.360
770.01	22.416
770.19	22.457
770.36	22.539
770.54	22.579
770.72	22.544
770.90	22.524
771.08	22.518
771.26	22.539
771.44	22.607
771.62	22.633
771.80	22.569
771.98	22.511
772.15	22.529
772.33	22.561
772.51	22.592
772.69	22.660
772.87	22.723
773.05	22.741
773.23	22.762
773.41	22.745
773.58	22.746
773.76	22.800
773.94	22.764
774.12	22.692
774.30	22.712
774.48	22.677
774.66	22.628
774.84	22.580
775.01	22.543
775.19	22.588
775.37	22.620
775.55	22.662
775.73	22.645
775.91	22.660
776.09	22.691
776.26	22.613
776.44	22.657
776.62	22.715
776.80	22.706
776.98	22.770
777.16	22.730
777.34	22.755
777.51	22.686
777.69	22.725
777.87	22.755
778.05	22.804
778.23	22.865
778.41	22.917
778.58	22.893
778.76	22.990
778.94	22.982
779.12	22.949
779.30	22.880
779.48	22.962
779.65	22.963
779.83	22.985
780.01	22.949
780.19	22.932
780.37	22.850
780.55	22.971
780.72	22.961
780.90	23.005
781.08	23.061
781.26	23.219
781.44	23.176
781.61	23.122
781.79	23.146
781.97	23.169
782.15	23.154
782.33	23.261
782.50	23.188
782.68	23.266
782.86	23.209
783.04	23.263
783.22	23.199
783.39	23.288
783.57	23.306
783.75	23.304
783.93	23.325
784.11	23.424
784.28	23.188
784.46	23.214
784.64	23.163
784.82	23.245
784.99	23.180
785.17	23.132
785.35	23.156
785.53	23.279
785.71	23.332
785.88	23.386
786.06	23.455
786.24	23.734
786.42	23.828
786.59	23.743
786.77	23.716
786.95	23.816
787.13	23.964
787.30	23.949
787.48	23.941
787.66	23.964
787.84	23.963
788.01	23.867
788.19	23.883
788.37	23.892
788.55	24.001
788.72	24.069
788.90	23.997
789.08	23.909
789.26	23.852
789.43	23.835
789.61	23.823
789.79	23.834
789.97	23.826
790.14	23.829
790.32	23.801
790.50	23.840
790.68	23.866
790.85	23.867
791.03	23.905
791.21	23.934
791.38	23.926
791.56	23.920
791.74	23.942
791.92	23.925
792.09	23.867
792.27	23.831
792.45	23.755
792.62	23.684
792.80	23.677
792.98	23.588
793.16	23.613
793.33	23.607
793.51	23.610
793.69	23.568
793.86	23.563
794.04	23.607
794.22	23.611
794.39	23.633
794.57	23.712
794.75	23.856
794.93	23.997
795.10	24.052
795.28	24.094
795.46	24.181
795.63	24.231
795.81	24.402
795.99	24.399
796.16	24.412
796.34	24.427
796.52	24.337
796.69	24.267
796.87	24.258
797.05	24.278
797.22	24.191
797.40	24.135
797.58	24.132
797.75	24.079
797.93	24.188
798.11	24.267
798.28	24.348
798.46	24.363
798.64	24.374
798.81	24.369
798.99	24.302
799.17	24.396
799.34	24.380
799.52	24.379
799.70	24.373
799.87	24.409
800.05	24.329
800.22	24.200
800.40	24.190
800.58	24.234
800.75	24.134
800.93	24.216
801.11	24.178
801.28	24.257
801.46	24.214
801.63	24.277
801.81	24.186
801.99	24.309
802.16	24.441
802.34	24.497
802.52	24.504
802.69	24.623
802.87	24.640
803.04	24.681
803.22	24.747
803.40	24.788
803.57	24.808
803.75	24.816
803.93	24.717
804.10	24.693
804.28	24.708
804.45	24.684
804.63	24.698
804.81	24.745
804.98	24.759
805.16	24.692
805.33	24.861
805.51	24.929
805.68	25.008
805.86	25.053
806.04	24.980
806.21	25.036
806.39	25.034
806.56	25.023
806.74	24.990
806.92	24.995
807.09	24.908
807.27	24.888
807.44	24.793
807.62	24.798
807.79	24.828
807.97	24.888
808.15	24.859
808.32	24.842
808.50	24.880
808.67	24.936
808.85	25.004
809.02	25.126
809.20	25.070
809.38	25.025
809.55	24.915
809.73	24.929
809.90	24.995
810.08	24.992
810.25	25.025
810.43	24.999
810.60	24.899
810.78	24.927
810.95	24.844
811.13	24.926
811.31	24.989
811.48	25.102
811.66	25.165
811.83	25.111
812.01	25.091
812.18	25.170
812.36	25.183
812.53	25.198
812.71	25.069
812.88	25.107
813.06	25.016
813.23	24.918
813.41	24.920
813.58	24.881
813.76	24.988
813.93	25.093
814.11	25.059
814.28	25.213
814.46	25.314
814.63	25.539
814.81	25.589
814.98	25.648
815.16	25.826
815.33	25.747
815.51	25.752
815.68	25.607
815.86	25.594
816.03	25.633
816.21	25.543
816.38	25.406
816.56	25.329
816.73	25.420
816.91	25.435
817.08	25.399
817.26	25.512
817.43	25.571
817.61	25.647
817.78	25.707
817.96	25.735
818.13	25.771
818.31	25.942
818.48	25.991
818.66	26.059
818.83	26.091
819.01	26.134
819.18	26.218
819.36	26.228
819.53	26.251
819.70	26.164
819.88	26.228
820.05	26.227
820.23	26.214
820.40	26.196
820.58	26.044
820.75	26.153
820.93	26.133
821.10	26.094
821.28	26.127
821.45	26.208
821.62	26.351
821.80	26.322
821.97	26.420
822.15	26.530
822.32	26.619
822.50	26.863
822.67	27.081
822.84	27.201
823.02	27.187
823.19	27.079
823.37	26.922
823.54	26.740
823.72	26.568
823.89	26.412
824.06	26.303
824.24	26.211
824.41	26.105
824.59	25.972
824.76	25.842
824.94	25.718
825.11	25.600
825.28	25.505
825.46	25.419
825.63	25.398
825.81	25.415
825.98	25.402
826.15	25.409
826.33	25.440
826.50	25.499
826.68	25.574
826.85	25.650
827.02	25.729
827.20	25.822
827.37	26.069
827.54	26.275
827.72	26.441
827.89	26.642
828.07	26.781
828.24	26.806
828.41	26.800
828.59	26.736
828.76	26.659
828.94	26.612
829.11	26.527
829.28	26.429
829.46	26.317
829.63	26.200
829.80	26.082
829.98	25.959
830.15	25.841
830.32	25.753
830.50	25.737
830.67	25.759
830.85	25.779
831.02	25.861
831.19	25.863
831.37	25.926
831.54	26.017
831.71	26.009
831.89	26.016
832.06	26.146
832.23	26.197
832.41	26.202
832.58	26.333
832.75	26.494
832.93	26.590
833.10	26.736
833.27	26.797
833.45	26.895
833.62	27.000
833.79	27.114
833.97	27.310
834.14	27.426
834.31	27.583
834.49	27.666
834.66	27.585
834.83	27.650
835.01	27.567
835.18	27.495
835.35	27.388
835.52	27.296
835.70	27.232
835.87	27.139
836.04	27.075
836.22	26.908
836.39	26.784
836.56	26.699
836.74	26.550
836.91	26.461
837.08	26.400
837.25	26.366
837.43	26.399
837.60	26.356
837.77	26.304
837.95	26.226
838.12	26.328
838.29	26.307
838.46	26.361
838.64	26.333
838.81	26.375
838.98	26.321
839.16	26.473
839.33	26.353
839.50	26.368
839.67	26.443
839.85	26.551
840.02	26.713
840.19	26.735
840.36	26.934
840.54	27.074
840.71	27.359
840.88	27.593
841.06	27.545
841.23	27.753
841.40	27.791
841.57	27.886
841.75	27.788
841.92	27.614
842.09	27.584
842.26	27.409
842.44	27.356
842.61	27.182
842.78	27.092
842.95	27.093
843.12	26.973
843.30	26.870
843.47	26.781
843.64	26.860
843.81	26.956
843.99	27.073
844.16	27.125
844.33	27.062
844.50	27.160
844.68	27.298
844.85	27.276
845.02	27.277
845.19	27.403
845.36	27.254
845.54	27.212
845.71	27.337
845.88	27.290
846.05	27.414
846.22	27.486
846.40	27.579
846.57	27.656
846.74	27.437
846.91	27.199
847.08	27.117
847.26	27.211
847.43	27.326
847.60	27.046
847.77	27.049
847.94	26.713
848.12	26.758
848.29	26.500
848.46	26.085
848.63	26.215
848.80	26.611
848.98	26.796
849.15	26.792
849.32	26.718
849.49	26.725
849.66	26.812
849.83	26.915
850.01	26.956
850.18	27.046
850.35	27.338
850.52	27.450
850.69	27.118
850.86	27.159
851.04	27.202
851.21	27.147
851.38	27.212
851.55	27.018
851.72	27.082
851.89	27.210
852.06	27.191
852.24	27.107
852.41	27.259
852.58	27.422
852.75	27.478
852.92	27.562
853.09	27.628
853.26	27.747
853.44	27.720
853.61	27.894
853.78	27.691
853.95	28.003
854.12	27.780
854.29	27.925
854.46	28.161
854.64	27.976
854.81	28.070
854.98	28.110
855.15	28.227
855.32	28.190
855.49	28.142
855.66	28.215
855.83	27.797
856.00	28.010
856.18	27.790
856.35	27.570
856.52	27.815
856.69	27.520
856.86	27.387
857.03	27.382
857.20	27.821
857.37	28.190
857.54	28.168
857.71	28.497
857.89	28.551
858.06	28.431
858.23	28.517
858.40	28.059
858.57	28.099
858.74	28.082
858.91	28.199
859.08	27.888
859.25	27.439
859.42	27.672
859.59	27.357
859.76	27.392
859.94	27.561
860.11	27.727
860.28	27.886
860.45	27.904
860.62	28.099
860.79	27.780
860.96	27.683
861.13	27.603
861.30	27.448
861.47	27.918
861.64	27.837
861.81	27.620
861.98	27.405
862.15	27.529
862.32	27.656
862.49	27.545
862.66	27.872
862.83	28.035
863.01	28.421
863.18	28.350
863.35	28.102
863.52	28.797
863.69	28.837
863.86	29.113
864.03	29.207
864.20	29.537
864.37	29.516
864.54	29.656
864.71	29.754
864.88	29.620
865.05	29.837
865.22	29.952
865.39	29.653
865.56	30.033
865.73	29.898
865.90	29.825
866.07	29.524
866.24	29.469
866.41	29.422
866.58	29.435
866.75	29.364
866.92	29.211
867.09	28.995
867.26	28.729
867.43	28.364
867.60	28.402
867.77	28.554
867.94	28.591
868.11	28.624
868.28	28.681
868.45	28.459
868.62	28.639
868.79	28.800
868.96	28.686
869.13	28.860
869.30	29.087
869.47	28.762
869.64	28.631
869.81	28.624
869.98	28.586
870.15	28.627
870.32	28.578
870.49	28.348
870.66	28.578
870.83	28.716
871.00	28.868
871.16	28.842
871.33	29.225
871.50	29.038
871.67	29.020
871.84	28.986
872.01	28.872
872.18	29.101
872.35	29.463
872.52	29.013
872.69	28.711
872.86	28.625
873.03	28.806
873.20	28.689
873.37	28.983
873.54	29.060
873.71	29.226
873.88	29.234
874.05	29.394
874.21	29.202
874.38	29.215
874.55	29.663
874.72	29.653
874.89	29.231
875.06	29.446
875.23	29.347
875.40	29.075
875.57	29.134
875.74	29.175
875.91	28.857
876.08	28.806
876.24	28.945
876.41	28.820
876.58	28.643
876.75	28.732
876.92	28.688
877.09	28.642
877.26	28.960
877.43	28.822
877.60	28.629
877.77	28.567
877.93	28.688
878.10	28.906
878.27	28.890
878.44	28.983
878.61	29.153
878.78	29.142
878.95	29.058
879.12	29.213
879.28	29.275
879.45	29.275
879.62	29.607
879.79	29.523
879.96	29.479
880.13	29.550
880.30	29.760
880.47	29.716
880.63	29.746
880.80	29.924
880.97	29.989
881.14	30.267
881.31	30.332
881.48	30.462
881.65	30.865
881.81	31.080
881.98	31.450
882.15	31.576
882.32	31.675
882.49	31.624
882.66	31.566
882.82	31.384
882.99	31.124
883.16	30.975
883.33	30.775
883.50	30.596
883.67	30.455
883.83	30.281
884.00	30.126
884.17	29.938
884.34	29.780
884.51	29.632
884.68	29.480
884.84	29.394
885.01	29.295
885.18	29.233
885.35	29.151
885.52	29.074
885.68	29.010
885.85	28.947
886.02	28.686
886.19	28.597
886.36	28.890
886.53	28.931
886.69	29.022
>>>>>End Spectral Data<<<<<
