OOIBase32 Version 2.0.6.5 Data File
++++++++++++++++++++++++++++++++++++
Date: 03-24-2011, 10:55:36
User: Valued Ocean Optics Customer
Spectrometer Serial Number: USB4C01507
Spectrometer Channel: Master
Integration Time (msec): 46
Spectra Averaged: 30
Boxcar Smoothing: 5
Correct for Electrical Dark: Enabled
Time Normalized: Disabled
Dual-beam Reference: Disabled
Reference Channel: Master
Temperature: Not acquired
Spectrometer Type: S4000
ADC Type: USB4000
Number of Pixels in File: 3648
Graph Title: 
>>>>>Begin Spectral Data<<<<<
179.17	1096.757
179.39	3185.332
179.60	143.512
179.82	-43.225
180.03	268.802
180.24	-211.032
180.46	79.086
180.67	-146.367
180.89	-91.785
181.10	-105.389
181.31	177.999
181.53	-58.063
181.74	-1.243
181.96	368.666
182.17	26.028
182.39	13.912
182.60	132.519
182.81	161.144
183.03	87.076
183.24	86.592
183.46	20.224
183.67	16.678
183.88	2.258
184.10	16.676
184.31	15.486
184.53	13.990
184.74	2.616
184.96	11.493
185.17	13.713
185.38	12.088
185.60	21.313
185.81	24.149
186.03	29.389
186.24	25.742
186.45	26.405
186.67	25.238
186.88	23.680
187.10	31.641
187.31	28.940
187.52	28.356
187.74	28.515
187.95	21.984
188.17	15.548
188.38	11.333
188.59	14.811
188.81	8.047
189.02	10.109
189.24	8.865
189.45	3.849
189.66	7.157
189.88	-1.222
190.09	-7.880
190.30	-4.102
190.52	-1.360
190.73	-4.996
190.95	-5.455
191.16	-1.264
191.37	-7.235
191.59	-12.466
191.80	-14.442
192.02	-21.422
192.23	-20.317
192.44	-22.052
192.66	-17.939
192.87	-24.714
193.08	-22.012
193.30	-20.814
193.51	-18.484
193.73	-17.475
193.94	-7.165
194.15	-4.799
194.37	6.648
194.58	10.092
194.79	9.153
195.01	5.950
195.22	7.016
195.44	10.319
195.65	9.634
195.86	5.052
196.08	5.718
196.29	6.887
196.50	9.595
196.72	10.043
196.93	9.959
197.14	7.457
197.36	11.001
197.57	9.416
197.79	9.897
198.00	10.277
198.21	12.216
198.43	12.944
198.64	6.256
198.85	0.702
199.07	-2.396
199.28	-5.628
199.49	-1.708
199.71	-3.252
199.92	6.166
200.13	-0.340
200.35	3.451
200.56	-1.518
200.78	-1.943
200.99	4.709
201.20	9.269
201.42	7.816
201.63	11.476
201.84	13.160
202.06	15.002
202.27	9.416
202.48	15.435
202.70	6.444
202.91	7.385
203.12	5.307
203.34	0.578
203.55	0.905
203.76	0.554
203.98	2.531
204.19	2.734
204.40	2.160
204.62	0.719
204.83	-2.778
205.04	3.671
205.26	4.761
205.47	8.752
205.68	12.539
205.90	12.058
206.11	11.518
206.32	8.508
206.54	3.706
206.75	2.700
206.96	1.290
207.18	6.092
207.39	5.537
207.60	11.921
207.82	9.714
208.03	8.824
208.24	9.829
208.45	13.692
208.67	12.663
208.88	12.744
209.09	10.731
209.31	10.837
209.52	3.027
209.73	3.859
209.95	3.293
210.16	5.834
210.37	5.577
210.59	5.958
210.80	3.895
211.01	6.350
211.23	8.494
211.44	8.092
211.65	8.403
211.86	11.390
212.08	8.060
212.29	2.074
212.50	-1.730
212.72	-5.490
212.93	-10.046
213.14	-8.975
213.36	-11.524
213.57	-7.500
213.78	-6.837
213.99	-3.652
214.21	-0.362
214.42	4.675
214.63	7.138
214.85	6.319
215.06	7.884
215.27	12.436
215.49	11.590
215.70	13.776
215.91	10.230
216.12	9.557
216.34	8.273
216.55	9.512
216.76	9.169
216.98	6.233
217.19	6.197
217.40	10.907
217.61	7.798
217.83	9.024
218.04	6.579
218.25	6.383
218.47	6.409
218.68	5.188
218.89	3.096
219.10	2.887
219.32	1.391
219.53	4.438
219.74	4.473
219.95	4.061
220.17	3.916
220.38	5.645
220.59	4.004
220.81	3.679
221.02	5.138
221.23	5.393
221.44	3.947
221.66	6.801
221.87	5.099
222.08	4.092
222.29	5.036
222.51	5.301
222.72	3.085
222.93	5.017
223.14	5.936
223.36	4.876
223.57	4.264
223.78	4.214
223.99	3.516
224.21	3.938
224.42	3.368
224.63	2.740
224.84	1.391
225.06	3.040
225.27	2.620
225.48	2.683
225.69	3.516
225.91	3.531
226.12	3.273
226.33	4.158
226.54	3.912
226.76	4.053
226.97	4.238
227.18	4.098
227.39	3.915
227.61	4.171
227.82	4.142
228.03	4.068
228.24	3.973
228.46	4.117
228.67	3.980
228.88	4.002
229.09	3.813
229.31	3.770
229.52	3.908
229.73	3.947
229.94	3.852
230.16	3.860
230.37	3.836
230.58	4.056
230.79	3.882
231.00	4.073
231.22	4.063
231.43	4.475
231.64	4.687
231.85	5.021
232.07	4.987
232.28	4.977
232.49	4.759
232.70	4.511
232.91	4.690
233.13	4.851
233.34	4.505
233.55	4.852
233.76	4.587
233.98	4.640
234.19	4.191
234.40	4.140
234.61	3.716
234.82	4.040
235.04	4.076
235.25	3.866
235.46	3.668
235.67	3.845
235.88	3.769
236.10	4.042
236.31	3.791
236.52	3.971
236.73	4.325
236.94	4.794
237.16	4.296
237.37	4.471
237.58	4.243
237.79	4.434
238.01	3.885
238.22	3.530
238.43	3.641
238.64	3.811
238.85	3.721
239.06	3.479
239.28	3.198
239.49	3.130
239.70	2.999
239.91	3.211
240.12	3.000
240.34	3.166
240.55	3.308
240.76	3.239
240.97	3.138
241.18	3.146
241.40	3.196
241.61	3.165
241.82	3.218
242.03	3.367
242.24	3.338
242.45	3.449
242.67	3.440
242.88	3.440
243.09	3.333
243.30	3.292
243.51	3.536
243.73	3.557
243.94	3.538
244.15	3.602
244.36	3.432
244.57	3.343
244.78	3.238
245.00	3.185
245.21	3.226
245.42	3.192
245.63	3.203
245.84	3.193
246.05	3.075
246.27	3.139
246.48	3.095
246.69	3.077
246.90	3.176
247.11	3.119
247.32	3.104
247.54	3.077
247.75	3.069
247.96	3.085
248.17	3.075
248.38	3.221
248.59	3.269
248.81	3.301
249.02	3.354
249.23	3.188
249.44	3.203
249.65	3.287
249.86	3.032
250.07	3.276
250.29	3.128
250.50	2.903
250.71	2.678
250.92	2.572
251.13	2.645
251.34	2.788
251.55	2.623
251.77	2.794
251.98	2.769
252.19	2.890
252.40	2.774
252.61	2.717
252.82	2.625
253.03	2.617
253.25	2.551
253.46	2.481
253.67	2.415
253.88	2.621
254.09	2.481
254.30	2.690
254.51	2.797
254.73	2.787
254.94	2.782
255.15	2.857
255.36	2.833
255.57	2.650
255.78	2.607
255.99	2.477
256.20	2.425
256.42	2.476
256.63	2.234
256.84	2.149
257.05	2.233
257.26	2.387
257.47	2.423
257.68	2.565
257.89	2.547
258.10	2.609
258.32	2.538
258.53	2.491
258.74	2.448
258.95	2.502
259.16	2.542
259.37	2.518
259.58	2.467
259.79	2.563
260.00	2.558
260.22	2.603
260.43	2.625
260.64	2.641
260.85	2.737
261.06	2.816
261.27	2.791
261.48	2.779
261.69	2.790
261.90	2.890
262.12	2.637
262.33	2.583
262.54	2.570
262.75	2.533
262.96	2.487
263.17	2.495
263.38	2.552
263.59	2.663
263.80	2.587
264.01	2.628
264.22	2.588
264.44	2.594
264.65	2.315
264.86	2.367
265.07	2.175
265.28	2.154
265.49	2.150
265.70	2.070
265.91	2.042
266.12	2.185
266.33	2.085
266.54	2.156
266.75	2.179
266.97	2.444
267.18	2.573
267.39	2.681
267.60	2.775
267.81	2.697
268.02	2.657
268.23	2.726
268.44	2.565
268.65	2.621
268.86	2.613
269.07	2.606
269.28	2.443
269.49	2.443
269.70	2.419
269.92	2.349
270.13	2.348
270.34	2.452
270.55	2.314
270.76	2.331
270.97	2.402
271.18	2.417
271.39	2.401
271.60	2.416
271.81	2.347
272.02	2.354
272.23	2.371
272.44	2.445
272.65	2.414
272.86	2.521
273.07	2.519
273.28	2.534
273.49	2.542
273.71	2.614
273.92	2.721
274.13	2.668
274.34	2.642
274.55	2.725
274.76	2.662
274.97	2.673
275.18	2.548
275.39	2.603
275.60	2.545
275.81	2.519
276.02	2.490
276.23	2.368
276.44	2.349
276.65	2.448
276.86	2.406
277.07	2.356
277.28	2.353
277.49	2.574
277.70	2.468
277.91	2.555
278.12	2.440
278.33	2.423
278.54	2.501
278.75	2.496
278.96	2.366
279.17	2.404
279.39	2.415
279.60	2.431
279.81	2.288
280.02	2.349
280.23	2.218
280.44	2.258
280.65	2.259
280.86	2.247
281.07	2.257
281.28	2.369
281.49	2.250
281.70	2.357
281.91	2.319
282.12	2.377
282.33	2.451
282.54	2.487
282.75	2.564
282.96	2.623
283.17	2.618
283.38	2.587
283.59	2.538
283.80	2.558
284.01	2.429
284.22	2.465
284.43	2.338
284.64	2.267
284.85	2.259
285.06	2.198
285.27	2.107
285.48	2.077
285.69	2.098
285.90	2.200
286.11	2.260
286.32	2.317
286.53	2.233
286.74	2.351
286.95	2.375
287.16	2.429
287.37	2.418
287.58	2.443
287.79	2.429
288.00	2.412
288.21	2.231
288.42	2.136
288.63	2.147
288.84	2.232
289.05	2.177
289.26	2.132
289.47	2.060
289.68	2.033
289.89	2.038
290.10	1.990
290.31	1.964
290.51	1.982
290.72	1.969
290.93	1.975
291.14	1.924
291.35	1.945
291.56	1.942
291.77	1.991
291.98	2.000
292.19	2.052
292.40	2.129
292.61	2.070
292.82	2.078
293.03	2.185
293.24	2.126
293.45	2.160
293.66	2.106
293.87	2.207
294.08	2.059
294.29	2.169
294.50	2.007
294.71	2.069
294.92	2.172
295.13	2.163
295.34	2.060
295.55	2.045
295.76	1.998
295.96	1.944
296.17	1.881
296.38	2.020
296.59	1.948
296.80	2.005
297.01	1.976
297.22	1.938
297.43	1.973
297.64	2.014
297.85	1.980
298.06	1.971
298.27	2.007
298.48	2.023
298.69	1.896
298.90	1.937
299.11	1.949
299.32	1.916
299.53	1.994
299.73	1.961
299.94	1.967
300.15	2.021
300.36	2.058
300.57	2.075
300.78	2.061
300.99	2.160
301.20	2.092
301.41	2.129
301.62	2.158
301.83	2.110
302.04	2.059
302.25	2.031
302.45	2.021
302.66	2.023
302.87	1.982
303.08	2.003
303.29	1.967
303.50	2.042
303.71	2.114
303.92	2.062
304.13	2.029
304.34	2.089
304.55	2.069
304.76	2.099
304.96	2.073
305.17	2.110
305.38	2.065
305.59	2.096
305.80	2.029
306.01	1.959
306.22	1.955
306.43	1.966
306.64	1.886
306.85	1.885
307.06	1.824
307.26	1.812
307.47	1.766
307.68	1.877
307.89	1.864
308.10	1.857
308.31	1.910
308.52	1.919
308.73	1.888
308.94	1.936
309.14	1.968
309.35	2.041
309.56	2.059
309.77	2.047
309.98	2.013
310.19	2.019
310.40	2.045
310.61	1.998
310.82	1.999
311.02	2.013
311.23	1.978
311.44	1.963
311.65	1.882
311.86	1.828
312.07	1.852
312.28	1.767
312.49	1.726
312.69	1.738
312.90	1.709
313.11	1.676
313.32	1.692
313.53	1.747
313.74	1.714
313.95	1.723
314.16	1.794
314.36	1.814
314.57	1.860
314.78	1.929
314.99	1.889
315.20	1.949
315.41	2.041
315.62	1.977
315.82	1.932
316.03	1.954
316.24	1.954
316.45	1.979
316.66	1.948
316.87	1.983
317.08	1.942
317.28	1.999
317.49	1.922
317.70	1.870
317.91	1.909
318.12	1.930
318.33	1.903
318.54	1.973
318.74	1.940
318.95	1.970
319.16	1.967
319.37	1.963
319.58	1.955
319.79	1.913
319.99	1.902
320.20	1.910
320.41	1.854
320.62	1.862
320.83	1.841
321.04	1.833
321.24	1.824
321.45	1.854
321.66	1.862
321.87	1.844
322.08	1.891
322.29	1.924
322.49	1.926
322.70	1.987
322.91	1.999
323.12	1.988
323.33	1.987
323.54	1.975
323.74	1.916
323.95	1.904
324.16	1.877
324.37	1.901
324.58	1.889
324.79	1.875
324.99	1.830
325.20	1.913
325.41	1.947
325.62	1.968
325.83	2.003
326.03	1.972
326.24	1.977
326.45	2.016
326.66	1.968
326.87	1.974
327.07	1.969
327.28	1.962
327.49	1.851
327.70	1.791
327.91	1.770
328.11	1.741
328.32	1.752
328.53	1.774
328.74	1.751
328.95	1.734
329.15	1.778
329.36	1.840
329.57	1.829
329.78	1.895
329.99	1.870
330.19	1.829
330.40	1.786
330.61	1.811
330.82	1.732
331.03	1.723
331.23	1.802
331.44	1.724
331.65	1.669
331.86	1.728
332.07	1.678
332.27	1.671
332.48	1.694
332.69	1.728
332.90	1.684
333.10	1.749
333.31	1.721
333.52	1.705
333.73	1.743
333.94	1.706
334.14	1.726
334.35	1.738
334.56	1.777
334.77	1.813
334.97	1.794
335.18	1.782
335.39	1.762
335.60	1.768
335.80	1.692
336.01	1.647
336.22	1.618
336.43	1.585
336.64	1.567
336.84	1.586
337.05	1.558
337.26	1.534
337.47	1.558
337.67	1.566
337.88	1.547
338.09	1.572
338.30	1.626
338.50	1.699
338.71	1.722
338.92	1.764
339.13	1.792
339.33	1.790
339.54	1.762
339.75	1.775
339.96	1.758
340.16	1.774
340.37	1.807
340.58	1.793
340.79	1.793
340.99	1.743
341.20	1.691
341.41	1.610
341.62	1.606
341.82	1.662
342.03	1.606
342.24	1.588
342.44	1.610
342.65	1.611
342.86	1.558
343.07	1.549
343.27	1.605
343.48	1.622
343.69	1.633
343.90	1.669
344.10	1.627
344.31	1.662
344.52	1.685
344.72	1.655
344.93	1.590
345.14	1.612
345.35	1.594
345.55	1.568
345.76	1.554
345.97	1.605
346.18	1.553
346.38	1.599
346.59	1.579
346.80	1.603
347.00	1.593
347.21	1.651
347.42	1.669
347.62	1.709
347.83	1.663
348.04	1.667
348.25	1.616
348.45	1.641
348.66	1.651
348.87	1.696
349.07	1.623
349.28	1.656
349.49	1.653
349.70	1.687
349.90	1.631
350.11	1.651
350.32	1.626
350.52	1.635
350.73	1.630
350.94	1.596
351.14	1.586
351.35	1.663
351.56	1.637
351.76	1.640
351.97	1.576
352.18	1.604
352.39	1.604
352.59	1.660
352.80	1.658
353.01	1.696
353.21	1.705
353.42	1.689
353.63	1.642
353.83	1.644
354.04	1.616
354.25	1.638
354.45	1.629
354.66	1.646
354.87	1.575
355.07	1.562
355.28	1.507
355.49	1.477
355.69	1.489
355.90	1.504
356.11	1.526
356.31	1.557
356.52	1.534
356.73	1.544
356.93	1.530
357.14	1.569
357.35	1.608
357.55	1.645
357.76	1.659
357.97	1.630
358.17	1.664
358.38	1.642
358.59	1.600
358.79	1.649
359.00	1.623
359.21	1.610
359.41	1.591
359.62	1.571
359.83	1.512
360.03	1.506
360.24	1.549
360.44	1.526
360.65	1.523
360.86	1.548
361.06	1.506
361.27	1.509
361.48	1.518
361.68	1.548
361.89	1.558
362.10	1.578
362.30	1.581
362.51	1.581
362.72	1.582
362.92	1.610
363.13	1.577
363.33	1.600
363.54	1.626
363.75	1.651
363.95	1.636
364.16	1.627
364.37	1.652
364.57	1.663
364.78	1.637
364.98	1.631
365.19	1.576
365.40	1.598
365.60	1.558
365.81	1.542
366.02	1.522
366.22	1.486
366.43	1.479
366.63	1.453
366.84	1.432
367.05	1.439
367.25	1.383
367.46	1.396
367.66	1.414
367.87	1.458
368.08	1.468
368.28	1.486
368.49	1.509
368.69	1.512
368.90	1.520
369.11	1.559
369.31	1.559
369.52	1.613
369.72	1.623
369.93	1.627
370.14	1.632
370.34	1.622
370.55	1.591
370.75	1.615
370.96	1.625
371.17	1.638
371.37	1.617
371.58	1.627
371.78	1.609
371.99	1.643
372.20	1.617
372.40	1.603
372.61	1.600
372.81	1.622
373.02	1.600
373.23	1.598
373.43	1.600
373.64	1.604
373.84	1.610
374.05	1.644
374.25	1.614
374.46	1.600
374.67	1.597
374.87	1.636
375.08	1.622
375.28	1.593
375.49	1.581
375.69	1.589
375.90	1.569
376.11	1.561
376.31	1.539
376.52	1.559
376.72	1.562
376.93	1.550
377.13	1.510
377.34	1.525
377.55	1.563
377.75	1.569
377.96	1.516
378.16	1.542
378.37	1.559
378.57	1.572
378.78	1.557
378.98	1.563
379.19	1.578
379.40	1.567
379.60	1.538
379.81	1.523
380.01	1.494
380.22	1.516
380.42	1.508
380.63	1.486
380.83	1.460
381.04	1.458
381.24	1.459
381.45	1.471
381.66	1.480
381.86	1.518
382.07	1.526
382.27	1.553
382.48	1.538
382.68	1.536
382.89	1.551
383.09	1.566
383.30	1.557
383.50	1.571
383.71	1.542
383.91	1.532
384.12	1.500
384.32	1.493
384.53	1.475
384.73	1.490
384.94	1.482
385.15	1.476
385.35	1.478
385.56	1.486
385.76	1.468
385.97	1.482
386.17	1.499
386.38	1.511
386.58	1.514
386.79	1.559
386.99	1.556
387.20	1.558
387.40	1.531
387.61	1.545
387.81	1.537
388.02	1.551
388.22	1.538
388.43	1.529
388.63	1.511
388.84	1.539
389.04	1.514
389.25	1.526
389.45	1.507
389.66	1.523
389.86	1.518
390.07	1.532
390.27	1.516
390.48	1.518
390.68	1.530
390.89	1.558
391.09	1.561
391.30	1.547
391.50	1.557
391.71	1.581
391.91	1.574
392.12	1.589
392.32	1.588
392.53	1.615
392.73	1.628
392.94	1.622
393.14	1.622
393.35	1.602
393.55	1.616
393.75	1.624
393.96	1.627
394.16	1.629
394.37	1.611
394.57	1.616
394.78	1.609
394.98	1.582
395.19	1.577
395.39	1.558
395.60	1.558
395.80	1.562
396.01	1.515
396.21	1.548
396.42	1.531
396.62	1.529
396.83	1.517
397.03	1.519
397.23	1.544
397.44	1.552
397.64	1.567
397.85	1.581
398.05	1.571
398.26	1.601
398.46	1.546
398.67	1.570
398.87	1.551
399.08	1.555
399.28	1.542
399.48	1.527
399.69	1.512
399.89	1.529
400.10	1.516
400.30	1.495
400.51	1.477
400.71	1.498
400.92	1.488
401.12	1.521
401.32	1.522
401.53	1.509
401.73	1.507
401.94	1.535
402.14	1.524
402.35	1.529
402.55	1.549
402.75	1.575
402.96	1.574
403.16	1.597
403.37	1.576
403.57	1.572
403.78	1.587
403.98	1.593
404.18	1.569
404.39	1.547
404.59	1.541
404.80	1.533
405.00	1.518
405.21	1.516
405.41	1.495
405.61	1.503
405.82	1.507
406.02	1.516
406.23	1.526
406.43	1.542
406.63	1.551
406.84	1.567
407.04	1.587
407.25	1.595
407.45	1.610
407.65	1.630
407.86	1.619
408.06	1.607
408.27	1.585
408.47	1.608
408.67	1.592
408.88	1.581
409.08	1.557
409.29	1.547
409.49	1.540
409.69	1.536
409.90	1.542
410.10	1.549
410.31	1.554
410.51	1.572
410.71	1.539
410.92	1.542
411.12	1.554
411.33	1.569
411.53	1.576
411.73	1.582
411.94	1.599
412.14	1.584
412.34	1.572
412.55	1.594
412.75	1.593
412.96	1.609
413.16	1.627
413.36	1.613
413.57	1.605
413.77	1.602
413.97	1.621
414.18	1.611
414.38	1.609
414.59	1.624
414.79	1.603
414.99	1.594
415.20	1.599
415.40	1.619
415.60	1.628
415.81	1.616
416.01	1.619
416.21	1.600
416.42	1.596
416.62	1.607
416.83	1.595
417.03	1.593
417.23	1.578
417.44	1.568
417.64	1.523
417.84	1.533
418.05	1.553
418.25	1.553
418.45	1.554
418.66	1.547
418.86	1.522
419.06	1.544
419.27	1.539
419.47	1.548
419.67	1.540
419.88	1.552
420.08	1.541
420.28	1.519
420.49	1.519
420.69	1.516
420.89	1.515
421.10	1.530
421.30	1.517
421.50	1.525
421.71	1.530
421.91	1.541
422.11	1.549
422.32	1.561
422.52	1.568
422.72	1.573
422.93	1.583
423.13	1.591
423.33	1.597
423.54	1.589
423.74	1.588
423.94	1.597
424.15	1.595
424.35	1.607
424.55	1.599
424.76	1.616
424.96	1.613
425.16	1.606
425.36	1.599
425.57	1.589
425.77	1.596
425.97	1.607
426.18	1.602
426.38	1.606
426.58	1.592
426.79	1.606
426.99	1.590
427.19	1.605
427.39	1.613
427.60	1.618
427.80	1.637
428.00	1.664
428.21	1.663
428.41	1.666
428.61	1.656
428.82	1.642
429.02	1.653
429.22	1.673
429.42	1.667
429.63	1.658
429.83	1.662
430.03	1.650
430.24	1.635
430.44	1.644
430.64	1.649
430.84	1.653
431.05	1.646
431.25	1.636
431.45	1.618
431.65	1.605
431.86	1.611
432.06	1.627
432.26	1.625
432.47	1.639
432.67	1.624
432.87	1.614
433.07	1.618
433.28	1.645
433.48	1.652
433.68	1.653
433.88	1.671
434.09	1.681
434.29	1.678
434.49	1.683
434.69	1.669
434.90	1.680
435.10	1.669
435.30	1.677
435.51	1.674
435.71	1.667
435.91	1.670
436.11	1.652
436.32	1.639
436.52	1.648
436.72	1.649
436.92	1.653
437.13	1.648
437.33	1.663
437.53	1.654
437.73	1.640
437.93	1.636
438.14	1.630
438.34	1.618
438.54	1.636
438.74	1.619
438.95	1.625
439.15	1.635
439.35	1.634
439.55	1.635
439.76	1.647
439.96	1.657
440.16	1.666
440.36	1.681
440.56	1.700
440.77	1.681
440.97	1.683
441.17	1.679
441.37	1.670
441.58	1.683
441.78	1.699
441.98	1.704
442.18	1.701
442.38	1.696
442.59	1.701
442.79	1.697
442.99	1.726
443.19	1.723
443.40	1.737
443.60	1.745
443.80	1.732
444.00	1.715
444.20	1.700
444.41	1.685
444.61	1.691
444.81	1.688
445.01	1.689
445.21	1.671
445.42	1.684
445.62	1.679
445.82	1.666
446.02	1.666
446.22	1.674
446.43	1.667
446.63	1.667
446.83	1.664
447.03	1.658
447.23	1.664
447.44	1.672
447.64	1.659
447.84	1.659
448.04	1.659
448.24	1.666
448.44	1.660
448.65	1.677
448.85	1.696
449.05	1.711
449.25	1.716
449.45	1.726
449.65	1.752
449.86	1.779
450.06	1.791
450.26	1.816
450.46	1.821
450.66	1.819
450.87	1.825
451.07	1.820
451.27	1.802
451.47	1.809
451.67	1.799
451.87	1.793
452.08	1.774
452.28	1.769
452.48	1.755
452.68	1.758
452.88	1.761
453.08	1.751
453.28	1.753
453.49	1.767
453.69	1.783
453.89	1.785
454.09	1.773
454.29	1.790
454.49	1.797
454.70	1.810
454.90	1.792
455.10	1.801
455.30	1.799
455.50	1.808
455.70	1.809
455.90	1.800
456.11	1.788
456.31	1.792
456.51	1.790
456.71	1.791
456.91	1.799
457.11	1.821
457.31	1.814
457.51	1.832
457.72	1.822
457.92	1.809
458.12	1.796
458.32	1.802
458.52	1.797
458.72	1.801
458.92	1.787
459.12	1.780
459.33	1.772
459.53	1.778
459.73	1.784
459.93	1.783
460.13	1.797
460.33	1.800
460.53	1.797
460.73	1.791
460.93	1.791
461.14	1.807
461.34	1.808
461.54	1.818
461.74	1.822
461.94	1.814
462.14	1.828
462.34	1.822
462.54	1.831
462.74	1.837
462.95	1.850
463.15	1.854
463.35	1.833
463.55	1.848
463.75	1.848
463.95	1.852
464.15	1.855
464.35	1.856
464.55	1.846
464.75	1.851
464.95	1.863
465.16	1.862
465.36	1.859
465.56	1.872
465.76	1.872
465.96	1.875
466.16	1.878
466.36	1.878
466.56	1.867
466.76	1.874
466.96	1.878
467.16	1.880
467.36	1.878
467.57	1.883
467.77	1.890
467.97	1.889
468.17	1.881
468.37	1.873
468.57	1.876
468.77	1.891
468.97	1.884
469.17	1.875
469.37	1.874
469.57	1.880
469.77	1.888
469.97	1.883
470.17	1.889
470.37	1.901
470.57	1.904
470.78	1.898
470.98	1.896
471.18	1.908
471.38	1.914
471.58	1.922
471.78	1.928
471.98	1.926
472.18	1.935
472.38	1.934
472.58	1.941
472.78	1.959
472.98	1.976
473.18	1.988
473.38	1.993
473.58	2.002
473.78	1.998
473.98	2.005
474.18	2.024
474.38	2.021
474.58	2.021
474.78	2.027
474.98	2.025
475.18	2.025
475.38	2.016
475.58	2.019
475.79	2.008
475.99	2.008
476.19	2.007
476.39	1.986
476.59	1.991
476.79	1.997
476.99	1.984
477.19	1.980
477.39	1.977
477.59	1.982
477.79	1.981
477.99	1.984
478.19	1.982
478.39	1.988
478.59	1.998
478.79	1.998
478.99	2.004
479.19	2.015
479.39	2.018
479.59	2.039
479.79	2.035
479.99	2.041
480.19	2.043
480.39	2.046
480.59	2.040
480.79	2.035
480.99	2.042
481.19	2.034
481.39	2.036
481.59	2.034
481.79	2.024
481.99	2.022
482.19	2.025
482.39	2.036
482.59	2.038
482.79	2.036
482.99	2.030
483.19	2.039
483.39	2.069
483.59	2.082
483.79	2.078
483.99	2.069
484.19	2.060
484.39	2.057
484.58	2.056
484.78	2.054
484.98	2.056
485.18	2.062
485.38	2.058
485.58	2.032
485.78	2.008
485.98	2.011
486.18	2.018
486.38	2.034
486.58	2.040
486.78	2.037
486.98	2.043
487.18	2.047
487.38	2.049
487.58	2.048
487.78	2.052
487.98	2.062
488.18	2.061
488.38	2.063
488.58	2.061
488.78	2.064
488.98	2.075
489.18	2.083
489.37	2.086
489.57	2.092
489.77	2.107
489.97	2.118
490.17	2.122
490.37	2.134
490.57	2.140
490.77	2.156
490.97	2.161
491.17	2.157
491.37	2.160
491.57	2.168
491.77	2.169
491.97	2.166
492.17	2.166
492.37	2.171
492.56	2.169
492.76	2.179
492.96	2.179
493.16	2.187
493.36	2.197
493.56	2.201
493.76	2.204
493.96	2.216
494.16	2.217
494.36	2.221
494.56	2.228
494.76	2.241
494.95	2.243
495.15	2.253
495.35	2.245
495.55	2.251
495.75	2.250
495.95	2.255
496.15	2.262
496.35	2.271
496.55	2.278
496.75	2.281
496.95	2.281
497.14	2.284
497.34	2.291
497.54	2.303
497.74	2.305
497.94	2.313
498.14	2.313
498.34	2.308
498.54	2.310
498.74	2.316
498.93	2.324
499.13	2.328
499.33	2.343
499.53	2.342
499.73	2.356
499.93	2.361
500.13	2.361
500.33	2.376
500.53	2.392
500.72	2.408
500.92	2.412
501.12	2.417
501.32	2.417
501.52	2.410
501.72	2.407
501.92	2.396
502.12	2.396
502.31	2.411
502.51	2.409
502.71	2.410
502.91	2.401
503.11	2.409
503.31	2.412
503.51	2.430
503.70	2.437
503.90	2.453
504.10	2.468
504.30	2.466
504.50	2.459
504.70	2.467
504.90	2.471
505.09	2.486
505.29	2.491
505.49	2.497
505.69	2.495
505.89	2.500
506.09	2.494
506.29	2.494
506.48	2.500
506.68	2.519
506.88	2.528
507.08	2.526
507.28	2.528
507.48	2.532
507.67	2.526
507.87	2.527
508.07	2.530
508.27	2.534
508.47	2.533
508.67	2.543
508.86	2.536
509.06	2.529
509.26	2.539
509.46	2.543
509.66	2.546
509.85	2.560
510.05	2.577
510.25	2.581
510.45	2.590
510.65	2.602
510.85	2.603
511.04	2.610
511.24	2.616
511.44	2.626
511.64	2.634
511.84	2.627
512.03	2.629
512.23	2.634
512.43	2.642
512.63	2.648
512.83	2.654
513.02	2.666
513.22	2.678
513.42	2.696
513.62	2.695
513.82	2.701
514.01	2.720
514.21	2.725
514.41	2.729
514.61	2.733
514.81	2.733
515.00	2.731
515.20	2.739
515.40	2.744
515.60	2.730
515.80	2.734
515.99	2.731
516.19	2.729
516.39	2.739
516.59	2.734
516.78	2.737
516.98	2.749
517.18	2.748
517.38	2.746
517.58	2.738
517.77	2.752
517.97	2.752
518.17	2.757
518.37	2.766
518.56	2.765
518.76	2.772
518.96	2.774
519.16	2.767
519.36	2.775
519.55	2.782
519.75	2.791
519.95	2.802
520.15	2.808
520.34	2.819
520.54	2.828
520.74	2.845
520.94	2.854
521.13	2.869
521.33	2.882
521.53	2.888
521.73	2.895
521.92	2.902
522.12	2.902
522.32	2.906
522.52	2.911
522.71	2.916
522.91	2.921
523.11	2.927
523.31	2.918
523.50	2.924
523.70	2.938
523.90	2.937
524.09	2.945
524.29	2.943
524.49	2.962
524.69	2.964
524.88	2.959
525.08	2.956
525.28	2.953
525.48	2.957
525.67	2.957
525.87	2.952
526.07	2.953
526.26	2.949
526.46	2.959
526.66	2.957
526.86	2.960
527.05	2.963
527.25	2.968
527.45	2.977
527.64	2.981
527.84	2.982
528.04	2.982
528.24	2.994
528.43	3.002
528.63	3.002
528.83	2.999
529.02	2.998
529.22	2.996
529.42	2.991
529.62	2.993
529.81	2.994
530.01	2.998
530.21	3.000
530.40	2.998
530.60	2.994
530.80	3.001
530.99	3.012
531.19	3.023
531.39	3.038
531.58	3.055
531.78	3.065
531.98	3.077
532.18	3.091
532.37	3.115
532.57	3.123
532.77	3.132
532.96	3.125
533.16	3.126
533.36	3.134
533.55	3.138
533.75	3.142
533.95	3.146
534.14	3.147
534.34	3.156
534.54	3.156
534.73	3.159
534.93	3.172
535.13	3.187
535.32	3.193
535.52	3.197
535.72	3.214
535.91	3.226
536.11	3.232
536.31	3.245
536.50	3.251
536.70	3.261
536.90	3.268
537.09	3.276
537.29	3.280
537.48	3.296
537.68	3.301
537.88	3.309
538.07	3.314
538.27	3.328
538.47	3.346
538.66	3.348
538.86	3.347
539.06	3.357
539.25	3.358
539.45	3.376
539.65	3.374
539.84	3.395
540.04	3.395
540.23	3.406
540.43	3.405
540.63	3.390
540.82	3.390
541.02	3.390
541.22	3.388
541.41	3.391
541.61	3.378
541.80	3.382
542.00	3.376
542.20	3.370
542.39	3.368
542.59	3.370
542.79	3.378
542.98	3.384
543.18	3.393
543.37	3.404
543.57	3.407
543.77	3.426
543.96	3.421
544.16	3.428
544.35	3.444
544.55	3.462
544.75	3.461
544.94	3.467
545.14	3.476
545.33	3.484
545.53	3.491
545.73	3.501
545.92	3.503
546.12	3.519
546.31	3.521
546.51	3.531
546.71	3.523
546.90	3.543
547.10	3.547
547.29	3.558
547.49	3.568
547.69	3.579
547.88	3.586
548.08	3.599
548.27	3.601
548.47	3.611
548.66	3.617
548.86	3.633
549.06	3.634
549.25	3.647
549.45	3.656
549.64	3.658
549.84	3.661
550.03	3.675
550.23	3.688
550.43	3.710
550.62	3.712
550.82	3.728
551.01	3.735
551.21	3.732
551.40	3.747
551.60	3.748
551.80	3.749
551.99	3.752
552.19	3.759
552.38	3.752
552.58	3.754
552.77	3.773
552.97	3.773
553.16	3.768
553.36	3.773
553.56	3.781
553.75	3.786
553.95	3.786
554.14	3.789
554.34	3.803
554.53	3.817
554.73	3.830
554.92	3.833
555.12	3.842
555.31	3.860
555.51	3.889
555.70	3.884
555.90	3.887
556.10	3.911
556.29	3.926
556.49	3.922
556.68	3.935
556.88	3.946
557.07	3.962
557.27	3.967
557.46	3.962
557.66	3.952
557.85	3.964
558.05	3.970
558.24	3.985
558.44	3.991
558.63	3.990
558.83	3.972
559.02	3.977
559.22	3.977
559.41	3.978
559.61	3.998
559.80	4.016
560.00	4.020
560.19	4.025
560.39	4.022
560.58	4.032
560.78	4.047
560.97	4.069
561.17	4.067
561.36	4.070
561.56	4.077
561.75	4.081
561.95	4.087
562.14	4.083
562.34	4.092
562.53	4.088
562.73	4.087
562.92	4.086
563.12	4.085
563.31	4.076
563.51	4.070
563.70	4.076
563.90	4.082
564.09	4.088
564.29	4.102
564.48	4.108
564.68	4.115
564.87	4.124
565.07	4.127
565.26	4.139
565.45	4.144
565.65	4.163
565.84	4.168
566.04	4.153
566.23	4.143
566.43	4.145
566.62	4.139
566.82	4.151
567.01	4.143
567.21	4.152
567.40	4.146
567.60	4.164
567.79	4.158
567.98	4.170
568.18	4.191
568.37	4.209
568.57	4.209
568.76	4.226
568.96	4.230
569.15	4.254
569.35	4.269
569.54	4.285
569.73	4.284
569.93	4.299
570.12	4.288
570.32	4.296
570.51	4.290
570.71	4.308
570.90	4.315
571.09	4.324
571.29	4.330
571.48	4.329
571.68	4.319
571.87	4.321
572.07	4.325
572.26	4.334
572.45	4.337
572.65	4.349
572.84	4.342
573.04	4.333
573.23	4.341
573.43	4.335
573.62	4.329
573.81	4.354
574.01	4.359
574.20	4.355
574.40	4.361
574.59	4.360
574.78	4.355
574.98	4.371
575.17	4.384
575.37	4.383
575.56	4.393
575.75	4.406
575.95	4.413
576.14	4.416
576.34	4.424
576.53	4.423
576.72	4.429
576.92	4.443
577.11	4.451
577.31	4.461
577.50	4.465
577.69	4.481
577.89	4.498
578.08	4.495
578.28	4.504
578.47	4.511
578.66	4.530
578.86	4.546
579.05	4.555
579.24	4.555
579.44	4.559
579.63	4.553
579.83	4.538
580.02	4.528
580.21	4.542
580.41	4.554
580.60	4.572
580.79	4.588
580.99	4.602
581.18	4.601
581.38	4.614
581.57	4.635
581.76	4.649
581.96	4.676
582.15	4.700
582.34	4.699
582.54	4.698
582.73	4.698
582.92	4.692
583.12	4.685
583.31	4.700
583.50	4.696
583.70	4.682
583.89	4.690
584.08	4.681
584.28	4.683
584.47	4.688
584.66	4.715
584.86	4.713
585.05	4.719
585.24	4.710
585.44	4.716
585.63	4.734
585.82	4.750
586.02	4.758
586.21	4.785
586.40	4.774
586.60	4.799
586.79	4.785
586.98	4.800
587.18	4.808
587.37	4.836
587.56	4.832
587.76	4.836
587.95	4.837
588.14	4.849
588.34	4.834
588.53	4.847
588.72	4.836
588.92	4.849
589.11	4.857
589.30	4.859
589.50	4.860
589.69	4.873
589.88	4.864
590.07	4.880
590.27	4.885
590.46	4.881
590.65	4.887
590.85	4.894
591.04	4.888
591.23	4.897
591.43	4.904
591.62	4.907
591.81	4.913
592.00	4.926
592.20	4.934
592.39	4.949
592.58	4.984
592.78	4.995
592.97	5.001
593.16	5.009
593.35	5.017
593.55	5.021
593.74	5.027
593.93	5.038
594.13	5.054
594.32	5.064
594.51	5.059
594.70	5.050
594.90	5.035
595.09	5.029
595.28	5.042
595.47	5.050
595.67	5.065
595.86	5.068
596.05	5.075
596.24	5.075
596.44	5.065
596.63	5.070
596.82	5.055
597.02	5.074
597.21	5.079
597.40	5.096
597.59	5.086
597.79	5.072
597.98	5.075
598.17	5.071
598.36	5.073
598.56	5.083
598.75	5.073
598.94	5.098
599.13	5.103
599.32	5.112
599.52	5.089
599.71	5.113
599.90	5.130
600.09	5.140
600.29	5.146
600.48	5.154
600.67	5.140
600.86	5.161
601.06	5.173
601.25	5.193
601.44	5.202
601.63	5.230
601.82	5.219
602.02	5.233
602.21	5.231
602.40	5.249
602.59	5.250
602.79	5.268
602.98	5.261
603.17	5.252
603.36	5.248
603.55	5.254
603.75	5.232
603.94	5.238
604.13	5.228
604.32	5.233
604.51	5.220
604.71	5.230
604.90	5.229
605.09	5.240
605.28	5.248
605.47	5.248
605.67	5.246
605.86	5.271
606.05	5.291
606.24	5.315
606.43	5.318
606.63	5.334
606.82	5.327
607.01	5.340
607.20	5.358
607.39	5.379
607.59	5.375
607.78	5.396
607.97	5.391
608.16	5.374
608.35	5.371
608.54	5.367
608.74	5.358
608.93	5.389
609.12	5.388
609.31	5.381
609.50	5.375
609.69	5.403
609.89	5.391
610.08	5.398
610.27	5.409
610.46	5.425
610.65	5.446
610.84	5.457
611.04	5.448
611.23	5.455
611.42	5.465
611.61	5.470
611.80	5.458
611.99	5.460
612.19	5.470
612.38	5.473
612.57	5.458
612.76	5.461
612.95	5.482
613.14	5.498
613.33	5.513
613.53	5.530
613.72	5.544
613.91	5.552
614.10	5.580
614.29	5.588
614.48	5.603
614.67	5.628
614.86	5.648
615.06	5.649
615.25	5.647
615.44	5.657
615.63	5.644
615.82	5.648
616.01	5.659
616.20	5.659
616.39	5.678
616.59	5.663
616.78	5.664
616.97	5.668
617.16	5.676
617.35	5.689
617.54	5.682
617.73	5.708
617.92	5.718
618.12	5.717
618.31	5.722
618.50	5.730
618.69	5.756
618.88	5.759
619.07	5.755
619.26	5.764
619.45	5.773
619.64	5.782
619.83	5.776
620.03	5.785
620.22	5.803
620.41	5.828
620.60	5.817
620.79	5.826
620.98	5.822
621.17	5.840
621.36	5.838
621.55	5.845
621.74	5.856
621.93	5.866
622.12	5.863
622.32	5.873
622.51	5.847
622.70	5.857
622.89	5.843
623.08	5.859
623.27	5.853
623.46	5.853
623.65	5.859
623.84	5.868
624.03	5.863
624.22	5.875
624.41	5.867
624.60	5.894
624.79	5.894
624.99	5.912
625.18	5.921
625.37	5.930
625.56	5.937
625.75	5.924
625.94	5.932
626.13	5.935
626.32	5.931
626.51	5.951
626.70	5.946
626.89	5.944
627.08	5.944
627.27	5.949
627.46	5.950
627.65	5.972
627.84	5.989
628.03	5.987
628.22	5.999
628.41	6.013
628.60	6.011
628.79	6.026
628.98	6.037
629.17	6.037
629.37	6.042
629.56	6.053
629.75	6.044
629.94	6.054
630.13	6.058
630.32	6.075
630.51	6.067
630.70	6.063
630.89	6.054
631.08	6.085
631.27	6.090
631.46	6.109
631.65	6.117
631.84	6.128
632.03	6.121
632.22	6.138
632.41	6.131
632.60	6.150
632.79	6.171
632.98	6.179
633.17	6.171
633.36	6.197
633.55	6.197
633.74	6.211
633.93	6.224
634.12	6.234
634.31	6.240
634.50	6.248
634.69	6.255
634.88	6.263
635.07	6.272
635.26	6.268
635.45	6.256
635.64	6.253
635.83	6.255
636.02	6.225
636.21	6.242
636.40	6.235
636.59	6.239
636.78	6.236
636.96	6.234
637.15	6.244
637.34	6.245
637.53	6.261
637.72	6.263
637.91	6.252
638.10	6.298
638.29	6.310
638.48	6.327
638.67	6.331
638.86	6.325
639.05	6.341
639.24	6.333
639.43	6.369
639.62	6.362
639.81	6.352
640.00	6.355
640.19	6.347
640.38	6.347
640.57	6.347
640.76	6.357
640.95	6.380
641.14	6.386
641.32	6.409
641.51	6.411
641.70	6.430
641.89	6.466
642.08	6.484
642.27	6.490
642.46	6.503
642.65	6.487
642.84	6.495
643.03	6.517
643.22	6.511
643.41	6.519
643.60	6.534
643.79	6.556
643.98	6.558
644.16	6.561
644.35	6.567
644.54	6.544
644.73	6.580
644.92	6.579
645.11	6.556
645.30	6.546
645.49	6.557
645.68	6.529
645.87	6.542
646.06	6.548
646.24	6.576
646.43	6.564
646.62	6.582
646.81	6.582
647.00	6.587
647.19	6.598
647.38	6.626
647.57	6.611
647.76	6.629
647.95	6.607
648.13	6.605
648.32	6.599
648.51	6.636
648.70	6.629
648.89	6.647
649.08	6.651
649.27	6.660
649.46	6.662
649.65	6.673
649.83	6.668
650.02	6.672
650.21	6.700
650.40	6.696
650.59	6.690
650.78	6.714
650.97	6.699
651.16	6.708
651.34	6.719
651.53	6.732
651.72	6.732
651.91	6.734
652.10	6.744
652.29	6.733
652.48	6.760
652.66	6.763
652.85	6.779
653.04	6.809
653.23	6.805
653.42	6.811
653.61	6.799
653.80	6.796
653.98	6.815
654.17	6.812
654.36	6.814
654.55	6.789
654.74	6.801
654.93	6.784
655.11	6.775
655.30	6.785
655.49	6.807
655.68	6.827
655.87	6.865
656.06	6.855
656.24	6.873
656.43	6.882
656.62	6.908
656.81	6.897
657.00	6.919
657.19	6.938
657.37	6.950
657.56	6.937
657.75	6.883
657.94	6.885
658.13	6.893
658.31	6.889
658.50	6.897
658.69	6.896
658.88	6.909
659.07	6.925
659.26	6.911
659.44	6.902
659.63	6.905
659.82	6.974
660.01	6.961
660.20	6.972
660.38	6.995
660.57	7.014
660.76	7.019
660.95	7.043
661.14	7.031
661.32	7.038
661.51	7.053
661.70	7.080
661.89	7.081
662.08	7.119
662.26	7.125
662.45	7.121
662.64	7.102
662.83	7.134
663.01	7.120
663.20	7.128
663.39	7.138
663.58	7.149
663.77	7.141
663.95	7.159
664.14	7.152
664.33	7.196
664.52	7.190
664.70	7.211
664.89	7.217
665.08	7.244
665.27	7.257
665.45	7.259
665.64	7.257
665.83	7.249
666.02	7.245
666.20	7.228
666.39	7.201
666.58	7.241
666.77	7.248
666.95	7.225
667.14	7.202
667.33	7.204
667.52	7.235
667.70	7.256
667.89	7.264
668.08	7.272
668.27	7.296
668.45	7.299
668.64	7.284
668.83	7.276
669.02	7.270
669.20	7.291
669.39	7.312
669.58	7.294
669.77	7.313
669.95	7.306
670.14	7.300
670.33	7.306
670.51	7.329
670.70	7.346
670.89	7.344
671.08	7.361
671.26	7.379
671.45	7.363
671.64	7.377
671.82	7.380
672.01	7.410
672.20	7.411
672.39	7.416
672.57	7.418
672.76	7.420
672.95	7.446
673.13	7.469
673.32	7.470
673.51	7.477
673.70	7.466
673.88	7.463
674.07	7.473
674.26	7.484
674.44	7.502
674.63	7.496
674.82	7.501
675.00	7.496
675.19	7.497
675.38	7.495
675.56	7.531
675.75	7.564
675.94	7.576
676.12	7.575
676.31	7.585
676.50	7.575
676.69	7.604
676.87	7.618
677.06	7.637
677.25	7.628
677.43	7.664
677.62	7.657
677.81	7.672
677.99	7.698
678.18	7.702
678.37	7.691
678.55	7.702
678.74	7.675
678.93	7.677
679.11	7.659
679.30	7.664
679.48	7.644
679.67	7.631
679.86	7.623
680.04	7.608
680.23	7.610
680.42	7.629
680.60	7.629
680.79	7.651
680.98	7.665
681.16	7.674
681.35	7.688
681.54	7.660
681.72	7.660
681.91	7.672
682.10	7.671
682.28	7.681
682.47	7.677
682.65	7.683
682.84	7.696
683.03	7.691
683.21	7.712
683.40	7.710
683.59	7.748
683.77	7.781
683.96	7.783
684.14	7.799
684.33	7.799
684.52	7.839
684.70	7.849
684.89	7.841
685.07	7.844
685.26	7.868
685.45	7.890
685.63	7.889
685.82	7.891
686.00	7.906
686.19	7.913
686.38	7.934
686.56	7.933
686.75	7.954
686.93	7.955
687.12	7.960
687.31	7.943
687.49	7.946
687.68	7.974
687.86	7.965
688.05	7.966
688.24	7.996
688.42	7.998
688.61	7.990
688.79	7.989
688.98	7.998
689.17	8.006
689.35	8.020
689.54	8.008
689.72	7.996
689.91	8.004
690.09	7.995
690.28	7.997
690.47	8.010
690.65	8.010
690.84	8.023
691.02	8.033
691.21	8.026
691.39	8.042
691.58	8.063
691.76	8.060
691.95	8.066
692.14	8.106
692.32	8.097
692.51	8.096
692.69	8.120
692.88	8.102
693.06	8.124
693.25	8.152
693.43	8.134
693.62	8.143
693.81	8.155
693.99	8.179
694.18	8.156
694.36	8.147
694.55	8.151
694.73	8.133
694.92	8.131
695.10	8.109
695.29	8.119
695.47	8.146
695.66	8.136
695.84	8.164
696.03	8.169
696.21	8.186
696.40	8.194
696.59	8.222
696.77	8.251
696.96	8.255
697.14	8.275
697.33	8.282
697.51	8.282
697.70	8.298
697.88	8.305
698.07	8.294
698.25	8.286
698.44	8.270
698.62	8.249
698.81	8.244
698.99	8.280
699.18	8.272
699.36	8.258
699.55	8.247
699.73	8.238
699.92	8.225
700.10	8.225
700.29	8.217
700.47	8.217
700.66	8.231
700.84	8.241
701.03	8.226
701.21	8.234
701.40	8.224
701.58	8.256
701.77	8.290
701.95	8.331
702.13	8.342
702.32	8.386
702.50	8.437
702.69	8.436
702.87	8.443
703.06	8.476
703.24	8.486
703.43	8.514
703.61	8.530
703.80	8.555
703.98	8.506
704.17	8.526
704.35	8.522
704.54	8.538
704.72	8.557
704.90	8.565
705.09	8.539
705.27	8.582
705.46	8.591
705.64	8.558
705.83	8.521
706.01	8.562
706.20	8.581
706.38	8.590
706.56	8.563
706.75	8.585
706.93	8.587
707.12	8.603
707.30	8.592
707.49	8.639
707.67	8.679
707.86	8.701
708.04	8.714
708.22	8.724
708.41	8.718
708.59	8.738
708.78	8.719
708.96	8.731
709.14	8.762
709.33	8.795
709.51	8.776
709.70	8.774
709.88	8.794
710.07	8.795
710.25	8.812
710.43	8.819
710.62	8.832
710.80	8.851
710.99	8.865
711.17	8.857
711.35	8.849
711.54	8.864
711.72	8.865
711.91	8.886
712.09	8.887
712.27	8.861
712.46	8.898
712.64	8.909
712.83	8.910
713.01	8.930
713.19	8.923
713.38	8.912
713.56	8.903
713.75	8.941
713.93	8.934
714.11	8.950
714.30	8.968
714.48	8.967
714.66	8.967
714.85	8.985
715.03	8.973
715.22	8.988
715.40	9.018
715.58	9.029
715.77	9.035
715.95	9.049
716.13	9.066
716.32	9.055
716.50	9.014
716.68	9.028
716.87	8.999
717.05	9.014
717.24	9.015
717.42	9.011
717.60	9.008
717.79	8.984
717.97	8.979
718.15	8.972
718.34	8.993
718.52	9.077
718.70	9.097
718.89	9.112
719.07	9.088
719.25	9.121
719.44	9.116
719.62	9.158
719.80	9.162
719.99	9.155
720.17	9.131
720.35	9.166
720.54	9.117
720.72	9.104
720.90	9.127
721.09	9.177
721.27	9.148
721.45	9.142
721.64	9.102
721.82	9.097
722.00	9.129
722.19	9.195
722.37	9.185
722.55	9.190
722.74	9.180
722.92	9.217
723.10	9.223
723.28	9.261
723.47	9.293
723.65	9.368
723.83	9.398
724.02	9.354
724.20	9.318
724.38	9.310
724.57	9.336
724.75	9.386
724.93	9.370
725.11	9.367
725.30	9.332
725.48	9.330
725.66	9.314
725.85	9.332
726.03	9.337
726.21	9.381
726.39	9.386
726.58	9.412
726.76	9.393
726.94	9.402
727.13	9.373
727.31	9.424
727.49	9.449
727.67	9.476
727.86	9.497
728.04	9.542
728.22	9.525
728.40	9.570
728.59	9.533
728.77	9.571
728.95	9.595
729.13	9.608
729.32	9.590
729.50	9.590
729.68	9.595
729.86	9.548
730.05	9.558
730.23	9.565
730.41	9.527
730.59	9.580
730.78	9.562
730.96	9.559
731.14	9.602
731.32	9.635
731.51	9.628
731.69	9.625
731.87	9.644
732.05	9.687
732.24	9.704
732.42	9.737
732.60	9.689
732.78	9.694
732.97	9.686
733.15	9.664
733.33	9.675
733.51	9.689
733.69	9.679
733.88	9.704
734.06	9.648
734.24	9.655
734.42	9.637
734.60	9.655
734.79	9.656
734.97	9.672
735.15	9.684
735.33	9.669
735.52	9.686
735.70	9.715
735.88	9.718
736.06	9.742
736.24	9.730
736.43	9.776
736.61	9.826
736.79	9.832
736.97	9.810
737.15	9.819
737.34	9.828
737.52	9.862
737.70	9.869
737.88	9.915
738.06	9.917
738.24	9.985
738.43	9.998
738.61	9.986
738.79	10.000
738.97	10.076
739.15	10.105
739.33	10.096
739.52	10.074
739.70	10.044
739.88	10.012
740.06	10.010
740.24	9.975
740.42	9.933
740.61	9.940
740.79	9.955
740.97	9.886
741.15	9.935
741.33	9.961
741.51	9.992
741.70	10.045
741.88	10.115
742.06	10.175
742.24	10.192
742.42	10.206
742.60	10.219
742.78	10.206
742.97	10.255
743.15	10.222
743.33	10.247
743.51	10.204
743.69	10.206
743.87	10.174
744.05	10.178
744.24	10.189
744.42	10.180
744.60	10.191
744.78	10.242
744.96	10.266
745.14	10.315
745.32	10.310
745.50	10.343
745.69	10.345
745.87	10.351
746.05	10.322
746.23	10.322
746.41	10.334
746.59	10.320
746.77	10.274
746.95	10.239
747.13	10.172
747.32	10.219
747.50	10.209
747.68	10.232
747.86	10.205
748.04	10.223
748.22	10.231
748.40	10.300
748.58	10.308
748.76	10.374
748.94	10.431
749.13	10.476
749.31	10.438
749.49	10.480
749.67	10.470
749.85	10.535
750.03	10.541
750.21	10.552
750.39	10.531
750.57	10.556
750.75	10.542
750.93	10.516
751.11	10.542
751.30	10.539
751.48	10.553
751.66	10.592
751.84	10.589
752.02	10.628
752.20	10.670
752.38	10.671
752.56	10.691
752.74	10.690
752.92	10.747
753.10	10.716
753.28	10.751
753.46	10.787
753.64	10.759
753.82	10.723
754.00	10.688
754.18	10.685
754.37	10.689
754.55	10.720
754.73	10.722
754.91	10.730
755.09	10.741
755.27	10.779
755.45	10.731
755.63	10.719
755.81	10.756
755.99	10.755
756.17	10.747
756.35	10.732
756.53	10.682
756.71	10.683
756.89	10.642
757.07	10.635
757.25	10.584
757.43	10.630
757.61	10.677
757.79	10.716
757.97	10.697
758.15	10.743
758.33	10.839
758.51	10.893
758.69	10.900
758.87	10.923
759.05	10.930
759.23	10.920
759.41	10.928
759.59	10.916
759.77	10.880
759.95	10.937
760.13	10.888
760.31	10.863
760.49	10.871
760.67	10.924
760.85	10.943
761.03	11.002
761.21	11.034
761.39	11.028
761.57	11.081
761.75	11.095
761.93	11.074
762.11	11.088
762.29	11.083
762.47	11.149
762.65	11.114
762.83	11.120
763.01	11.094
763.19	11.132
763.37	11.134
763.55	11.139
763.73	11.185
763.91	11.228
764.09	11.232
764.27	11.253
764.45	11.196
764.63	11.202
764.81	11.188
764.99	11.187
765.16	11.174
765.34	11.185
765.52	11.161
765.70	11.137
765.88	11.135
766.06	11.131
766.24	11.112
766.42	11.130
766.60	11.151
766.78	11.140
766.96	11.158
767.14	11.171
767.32	11.165
767.50	11.151
767.68	11.132
767.86	11.136
768.03	11.146
768.21	11.169
768.39	11.157
768.57	11.133
768.75	11.206
768.93	11.207
769.11	11.251
769.29	11.280
769.47	11.274
769.65	11.311
769.83	11.338
770.01	11.418
770.19	11.417
770.36	11.474
770.54	11.493
770.72	11.499
770.90	11.447
771.08	11.491
771.26	11.496
771.44	11.541
771.62	11.552
771.80	11.562
771.98	11.511
772.15	11.569
772.33	11.518
772.51	11.546
772.69	11.503
772.87	11.600
773.05	11.470
773.23	11.500
773.41	11.522
773.58	11.559
773.76	11.572
773.94	11.551
774.12	11.495
774.30	11.506
774.48	11.512
774.66	11.520
774.84	11.492
775.01	11.594
775.19	11.568
775.37	11.610
775.55	11.562
775.73	11.585
775.91	11.661
776.09	11.757
776.26	11.772
776.44	11.740
776.62	11.810
776.80	11.813
776.98	11.827
777.16	11.809
777.34	11.796
777.51	11.872
777.69	11.804
777.87	11.781
778.05	11.718
778.23	11.772
778.41	11.780
778.58	11.709
778.76	11.704
778.94	11.737
779.12	11.788
779.30	11.765
779.48	11.699
779.65	11.786
779.83	11.755
780.01	11.812
780.19	11.847
780.37	11.925
780.55	11.964
780.72	12.038
780.90	12.000
781.08	12.053
781.26	12.168
781.44	12.187
781.61	12.146
781.79	12.192
781.97	12.138
782.15	12.086
782.33	12.059
782.50	12.080
782.68	12.100
782.86	12.096
783.04	12.033
783.22	12.019
783.39	12.046
783.57	12.036
783.75	12.028
783.93	12.118
784.11	12.222
784.28	12.084
784.46	12.123
784.64	12.160
784.82	12.203
784.99	12.234
785.17	12.134
785.35	12.210
785.53	12.276
785.71	12.276
785.88	12.242
786.06	12.277
786.24	12.442
786.42	12.473
786.59	12.372
786.77	12.391
786.95	12.406
787.13	12.472
787.30	12.496
787.48	12.537
787.66	12.566
787.84	12.540
788.01	12.446
788.19	12.520
788.37	12.574
788.55	12.565
788.72	12.594
788.90	12.584
789.08	12.622
789.26	12.524
789.43	12.463
789.61	12.515
789.79	12.540
789.97	12.573
790.14	12.565
790.32	12.531
790.50	12.601
790.68	12.584
790.85	12.602
791.03	12.614
791.21	12.735
791.38	12.821
791.56	12.777
791.74	12.808
791.92	12.729
792.09	12.680
792.27	12.762
792.45	12.755
792.62	12.666
792.80	12.641
792.98	12.533
793.16	12.463
793.33	12.384
793.51	12.427
793.69	12.375
793.86	12.431
794.04	12.443
794.22	12.390
794.39	12.398
794.57	12.469
794.75	12.589
794.93	12.800
795.10	12.804
795.28	12.887
795.46	12.927
795.63	12.942
795.81	13.015
795.99	13.010
796.16	12.972
796.34	13.054
796.52	13.048
796.69	13.022
796.87	12.938
797.05	12.980
797.22	12.938
797.40	12.980
797.58	12.987
797.75	12.943
797.93	12.969
798.11	13.078
798.28	13.068
798.46	13.124
798.64	13.014
798.81	12.995
798.99	12.910
799.17	12.921
799.34	12.772
799.52	12.788
799.70	12.776
799.87	12.836
800.05	12.654
800.22	12.626
800.40	12.629
800.58	12.689
800.75	12.774
800.93	12.885
801.11	12.855
801.28	12.999
801.46	12.957
801.63	13.059
801.81	13.064
801.99	13.194
802.16	13.199
802.34	13.260
802.52	13.261
802.69	13.204
802.87	13.224
803.04	13.256
803.22	13.317
803.40	13.411
803.57	13.361
803.75	13.428
803.93	13.409
804.10	13.402
804.28	13.337
804.45	13.379
804.63	13.355
804.81	13.355
804.98	13.490
805.16	13.465
805.33	13.512
805.51	13.666
805.68	13.625
805.86	13.608
806.04	13.634
806.21	13.680
806.39	13.694
806.56	13.768
806.74	13.737
806.92	13.607
807.09	13.550
807.27	13.497
807.44	13.351
807.62	13.318
807.79	13.293
807.97	13.339
808.15	13.294
808.32	13.365
808.50	13.276
808.67	13.261
808.85	13.365
809.02	13.377
809.20	13.338
809.38	13.394
809.55	13.420
809.73	13.529
809.90	13.466
810.08	13.484
810.25	13.442
810.43	13.608
810.60	13.602
810.78	13.633
810.95	13.625
811.13	13.828
811.31	13.836
811.48	13.966
811.66	13.933
811.83	13.964
812.01	13.959
812.18	13.930
812.36	13.806
812.53	13.807
812.71	13.806
812.88	13.813
813.06	13.768
813.23	13.740
813.41	13.775
813.58	13.783
813.76	13.884
813.93	13.899
814.11	13.874
814.28	14.087
814.46	14.173
814.63	14.139
814.81	14.213
814.98	14.156
815.16	14.186
815.33	13.967
815.51	13.986
815.68	13.947
815.86	14.006
816.03	14.030
816.21	13.849
816.38	13.738
816.56	13.744
816.73	13.708
816.91	13.733
817.08	13.808
817.26	13.886
817.43	13.998
817.61	14.000
817.78	13.968
817.96	14.076
818.13	14.194
818.31	14.281
818.48	14.323
818.66	14.451
818.83	14.472
819.01	14.335
819.18	14.362
819.36	14.332
819.53	14.360
819.70	14.237
819.88	14.288
820.05	14.262
820.23	14.380
820.40	14.423
820.58	14.341
820.75	14.381
820.93	14.446
821.10	14.415
821.28	14.414
821.45	14.399
821.62	14.609
821.80	14.617
821.97	14.669
822.15	14.668
822.32	14.705
822.50	14.849
822.67	15.036
822.84	15.131
823.02	15.123
823.19	15.017
823.37	14.910
823.54	14.783
823.72	14.672
823.89	14.578
824.06	14.536
824.24	14.480
824.41	14.434
824.59	14.357
824.76	14.290
824.94	14.226
825.11	14.186
825.28	14.155
825.46	14.140
825.63	14.154
825.81	14.186
825.98	14.170
826.15	14.210
826.33	14.200
826.50	14.233
826.68	14.244
826.85	14.259
827.02	14.267
827.20	14.338
827.37	14.423
827.54	14.560
827.72	14.669
827.89	14.800
828.07	14.851
828.24	14.896
828.41	14.886
828.59	14.868
828.76	14.863
828.94	14.852
829.11	14.797
829.28	14.766
829.46	14.690
829.63	14.650
829.80	14.604
829.98	14.553
830.15	14.504
830.32	14.487
830.50	14.461
830.67	14.510
830.85	14.551
831.02	14.621
831.19	14.636
831.37	14.691
831.54	14.704
831.71	14.729
831.89	14.774
832.06	14.892
832.23	14.908
832.41	15.019
832.58	14.968
832.75	15.089
832.93	15.062
833.10	15.034
833.27	15.146
833.45	15.253
833.62	15.242
833.79	15.300
833.97	15.330
834.14	15.401
834.31	15.467
834.49	15.594
834.66	15.492
834.83	15.538
835.01	15.547
835.18	15.452
835.35	15.384
835.52	15.317
835.70	15.275
835.87	15.210
836.04	15.172
836.22	15.105
836.39	15.008
836.56	14.998
836.74	14.948
836.91	14.944
837.08	14.944
837.25	14.890
837.43	14.976
837.60	14.991
837.77	15.004
837.95	15.021
838.12	15.092
838.29	15.065
838.46	15.048
838.64	15.074
838.81	14.947
838.98	15.069
839.16	15.231
839.33	15.144
839.50	15.141
839.67	15.227
839.85	15.163
840.02	15.202
840.19	15.123
840.36	15.301
840.54	15.193
840.71	15.385
840.88	15.366
841.06	15.335
841.23	15.402
841.40	15.423
841.57	15.430
841.75	15.478
841.92	15.338
842.09	15.464
842.26	15.312
842.44	15.369
842.61	15.379
842.78	15.343
842.95	15.404
843.12	15.379
843.30	15.341
843.47	15.452
843.64	15.408
843.81	15.678
843.99	15.707
844.16	15.778
844.33	15.612
844.50	15.684
844.68	15.776
844.85	15.653
845.02	15.815
845.19	15.844
845.36	15.470
845.54	15.593
845.71	15.551
845.88	15.540
846.05	15.528
846.22	15.991
846.40	15.820
846.57	15.779
846.74	15.805
846.91	15.591
847.08	15.578
847.26	16.001
847.43	15.893
847.60	15.691
847.77	15.821
847.94	16.140
848.12	15.944
848.29	16.095
848.46	16.051
848.63	16.213
848.80	16.526
848.98	16.710
849.15	16.702
849.32	17.001
849.49	17.112
849.66	17.254
849.83	17.167
850.01	17.318
850.18	16.931
850.35	17.015
850.52	17.211
850.69	16.873
850.86	16.701
851.04	16.436
851.21	16.378
851.38	16.330
851.55	15.948
851.72	15.746
851.89	15.487
852.06	15.870
852.24	15.788
852.41	15.694
852.58	15.849
852.75	16.097
852.92	16.174
853.09	16.447
853.26	16.331
853.44	16.599
853.61	16.602
853.78	16.546
853.95	16.540
854.12	16.350
854.29	16.635
854.46	16.824
854.64	16.893
854.81	17.078
854.98	16.667
855.15	16.885
855.32	16.828
855.49	16.877
855.66	16.908
855.83	16.818
856.00	16.984
856.18	16.730
856.35	16.147
856.52	16.018
856.69	15.850
856.86	15.980
857.03	15.990
857.20	16.287
857.37	16.333
857.54	16.532
857.71	16.419
857.89	16.471
858.06	15.995
858.23	16.541
858.40	16.321
858.57	16.387
858.74	16.321
858.91	15.975
859.08	15.576
859.25	16.020
859.42	15.942
859.59	16.319
859.76	16.264
859.94	16.697
860.11	16.640
860.28	17.054
860.45	16.996
860.62	17.040
860.79	17.447
860.96	17.673
861.13	17.043
861.30	17.161
861.47	17.070
861.64	17.230
861.81	17.121
861.98	16.885
862.15	16.806
862.32	16.945
862.49	16.664
862.66	16.566
862.83	16.486
863.01	16.768
863.18	16.796
863.35	16.417
863.52	16.913
863.69	16.781
863.86	16.679
864.03	16.615
864.20	16.673
864.37	17.000
864.54	17.260
864.71	17.567
864.88	17.755
865.05	17.865
865.22	17.982
865.39	17.614
865.56	18.034
865.73	18.500
865.90	18.493
866.07	18.605
866.24	18.398
866.41	18.278
866.58	17.899
866.75	17.669
866.92	17.454
867.09	17.596
867.26	17.549
867.43	17.412
867.60	17.399
867.77	17.404
867.94	17.144
868.11	17.505
868.28	17.864
868.45	17.873
868.62	17.822
868.79	17.915
868.96	17.898
869.13	17.760
869.30	17.614
869.47	17.495
869.64	17.701
869.81	17.924
869.98	17.712
870.15	17.499
870.32	17.776
870.49	17.561
870.66	17.651
870.83	17.496
871.00	17.678
871.16	17.695
871.33	17.405
871.50	16.844
871.67	16.868
871.84	16.916
872.01	16.695
872.18	16.544
872.35	17.343
872.52	17.228
872.69	17.256
872.86	17.145
873.03	17.588
873.20	17.688
873.37	17.890
873.54	18.047
873.71	17.958
873.88	18.096
874.05	18.302
874.21	17.939
874.38	17.879
874.55	18.018
874.72	17.951
874.89	17.457
875.06	17.680
875.23	17.944
875.40	17.707
875.57	18.094
875.74	17.963
875.91	17.900
876.08	17.888
876.24	17.946
876.41	17.768
876.58	18.051
876.75	18.091
876.92	18.021
877.09	18.091
877.26	18.294
877.43	17.858
877.60	17.971
877.77	17.727
877.93	17.907
878.10	18.068
878.27	18.129
878.44	17.860
878.61	18.160
878.78	18.271
878.95	18.083
879.12	18.008
879.28	18.224
879.45	18.181
879.62	18.488
879.79	18.242
879.96	18.541
880.13	18.630
880.30	18.862
880.47	18.788
880.63	18.807
880.80	18.777
880.97	18.803
881.14	18.825
881.31	19.003
881.48	18.873
881.65	19.072
881.81	18.934
881.98	19.142
882.15	19.196
882.32	19.320
882.49	19.299
882.66	19.234
882.82	19.113
882.99	19.000
883.16	18.841
883.33	18.758
883.50	18.678
883.67	18.621
883.83	18.520
884.00	18.422
884.17	18.304
884.34	18.223
884.51	18.151
884.68	18.080
884.84	18.021
885.01	18.010
885.18	17.992
885.35	17.949
885.52	17.926
885.68	17.928
885.85	17.954
886.02	17.921
886.19	17.812
886.36	18.241
886.53	18.263
886.69	18.241
>>>>>End Spectral Data<<<<<
