OOIBase32 Version 2.0.6.5 Data File
++++++++++++++++++++++++++++++++++++
Date: 03-24-2011, 10:55:23
User: Valued Ocean Optics Customer
Spectrometer Serial Number: USB4C01507
Spectrometer Channel: Master
Integration Time (msec): 46
Spectra Averaged: 30
Boxcar Smoothing: 5
Correct for Electrical Dark: Enabled
Time Normalized: Disabled
Dual-beam Reference: Disabled
Reference Channel: Master
Temperature: Not acquired
Spectrometer Type: S4000
ADC Type: USB4000
Number of Pixels in File: 3648
Graph Title: 
>>>>>Begin Spectral Data<<<<<
179.17	1199.139
179.39	2847.821
179.60	-35.433
179.82	-216.466
180.03	937.609
180.24	201.081
180.46	91.329
180.67	-207.227
180.89	-22.054
181.10	-130.634
181.31	55.686
181.53	-115.384
181.74	-19.511
181.96	-210.196
182.17	17.846
182.39	-12.932
182.60	114.252
182.81	133.603
183.03	126.997
183.24	-236.347
183.46	41.255
183.67	28.963
183.88	13.987
184.10	23.617
184.31	21.476
184.53	32.501
184.74	26.355
184.96	24.842
185.17	29.160
185.38	30.099
185.60	29.070
185.81	30.138
186.03	28.886
186.24	27.632
186.45	26.346
186.67	24.656
186.88	15.869
187.10	14.249
187.31	8.464
187.52	7.338
187.74	6.338
187.95	1.190
188.17	-6.838
188.38	-5.407
188.59	-0.559
188.81	-8.877
189.02	-2.336
189.24	3.065
189.45	2.511
189.66	0.229
189.88	-12.480
190.09	-13.276
190.30	-11.504
190.52	-7.269
190.73	-5.520
190.95	-12.853
191.16	-6.904
191.37	-17.973
191.59	-20.224
191.80	-23.896
192.02	-13.208
192.23	-9.315
192.44	-12.198
192.66	-8.710
192.87	-19.935
193.08	-23.101
193.30	-23.725
193.51	-22.447
193.73	-17.544
193.94	-14.018
194.15	-6.617
194.37	-5.106
194.58	-2.361
194.79	-5.375
195.01	-8.086
195.22	-2.920
195.44	-2.325
195.65	4.130
195.86	6.437
196.08	7.018
196.29	7.523
196.50	4.492
196.72	4.043
196.93	7.170
197.14	6.115
197.36	9.621
197.57	7.177
197.79	9.775
198.00	4.933
198.21	9.516
198.43	13.843
198.64	14.397
198.85	16.739
199.07	16.092
199.28	15.243
199.49	16.993
199.71	18.500
199.92	22.790
200.13	18.235
200.35	29.065
200.56	13.032
200.78	10.535
200.99	6.460
201.20	10.860
201.42	11.662
201.63	4.283
201.84	5.154
202.06	0.181
202.27	-1.597
202.48	0.786
202.70	-6.137
202.91	3.124
203.12	-3.850
203.34	-8.561
203.55	-8.927
203.76	-11.102
203.98	-4.305
204.19	-5.623
204.40	-2.647
204.62	-3.312
204.83	-8.397
205.04	-10.201
205.26	-13.769
205.47	-5.716
205.68	-4.936
205.90	-9.426
206.11	-8.717
206.32	-12.509
206.54	-11.102
206.75	-11.942
206.96	-9.262
207.18	-1.881
207.39	4.115
207.60	13.447
207.82	11.290
208.03	15.748
208.24	14.956
208.45	16.782
208.67	15.603
208.88	12.159
209.09	13.027
209.31	10.974
209.52	9.023
209.73	8.335
209.95	4.573
210.16	5.535
210.37	2.548
210.59	6.704
210.80	6.931
211.01	11.099
211.23	14.738
211.44	10.471
211.65	9.867
211.86	10.959
212.08	11.215
212.29	10.171
212.50	7.523
212.72	7.145
212.93	2.150
213.14	3.222
213.36	-0.019
213.57	-1.913
213.78	1.155
213.99	4.889
214.21	4.999
214.42	6.410
214.63	5.721
214.85	3.262
215.06	3.921
215.27	6.820
215.49	5.945
215.70	5.928
215.91	5.734
216.12	4.321
216.34	4.912
216.55	2.186
216.76	-0.647
216.98	-1.719
217.19	1.254
217.40	6.148
217.61	7.632
217.83	8.693
218.04	10.614
218.25	8.693
218.47	10.339
218.68	7.088
218.89	9.381
219.10	10.446
219.32	8.879
219.53	6.064
219.74	4.883
219.95	3.187
220.17	2.598
220.38	2.972
220.59	2.991
220.81	1.890
221.02	3.358
221.23	2.744
221.44	2.279
221.66	3.330
221.87	4.793
222.08	4.284
222.29	5.672
222.51	6.052
222.72	5.105
222.93	6.416
223.14	6.519
223.36	5.372
223.57	5.319
223.78	5.475
223.99	5.614
224.21	6.282
224.42	5.586
224.63	3.963
224.84	3.069
225.06	3.303
225.27	3.057
225.48	3.381
225.69	4.057
225.91	3.805
226.12	3.463
226.33	3.785
226.54	3.174
226.76	3.057
226.97	3.250
227.18	3.089
227.39	2.745
227.61	2.810
227.82	2.698
228.03	2.706
228.24	2.754
228.46	2.761
228.67	2.643
228.88	2.634
229.09	2.599
229.31	2.507
229.52	2.579
229.73	2.769
229.94	2.739
230.16	2.854
230.37	2.812
230.58	2.675
230.79	2.653
231.00	2.786
231.22	2.859
231.43	3.131
231.64	3.251
231.85	3.306
232.07	3.495
232.28	3.233
232.49	3.345
232.70	3.380
232.91	3.794
233.13	3.680
233.34	3.552
233.55	3.926
233.76	3.939
233.98	4.066
234.19	3.890
234.40	3.605
234.61	3.732
234.82	3.725
235.04	3.370
235.25	3.139
235.46	3.392
235.67	3.276
235.88	2.849
236.10	2.956
236.31	2.672
236.52	2.873
236.73	3.311
236.94	3.505
237.16	2.913
237.37	3.300
237.58	2.906
237.79	2.773
238.01	2.644
238.22	2.492
238.43	2.113
238.64	2.422
238.85	2.460
239.06	2.283
239.28	2.052
239.49	2.220
239.70	2.090
239.91	2.331
240.12	2.217
240.34	2.349
240.55	2.524
240.76	2.676
240.97	2.417
241.18	2.303
241.40	2.210
241.61	2.223
241.82	2.362
242.03	2.379
242.24	2.362
242.45	2.492
242.67	2.441
242.88	2.425
243.09	2.308
243.30	2.380
243.51	2.555
243.73	2.611
243.94	2.702
244.15	2.565
244.36	2.573
244.57	2.674
244.78	2.465
245.00	2.328
245.21	2.219
245.42	2.210
245.63	2.264
245.84	2.160
246.05	2.114
246.27	2.126
246.48	2.106
246.69	2.094
246.90	2.107
247.11	2.009
247.32	2.050
247.54	2.074
247.75	2.005
247.96	1.901
248.17	1.938
248.38	1.983
248.59	1.918
248.81	1.881
249.02	1.852
249.23	1.675
249.44	1.768
249.65	1.751
249.86	1.462
250.07	1.699
250.29	1.849
250.50	1.514
250.71	1.502
250.92	1.438
251.13	1.532
251.34	1.681
251.55	1.635
251.77	1.817
251.98	1.876
252.19	1.959
252.40	1.822
252.61	1.898
252.82	2.008
253.03	2.047
253.25	2.151
253.46	2.012
253.67	1.875
253.88	1.979
254.09	1.884
254.30	1.736
254.51	1.802
254.73	1.918
254.94	1.849
255.15	1.955
255.36	1.900
255.57	1.720
255.78	1.716
255.99	1.783
256.20	1.914
256.42	1.900
256.63	1.760
256.84	1.801
257.05	1.819
257.26	1.806
257.47	1.768
257.68	1.843
257.89	1.754
258.10	1.858
258.32	1.755
258.53	1.617
258.74	1.598
258.95	1.652
259.16	1.636
259.37	1.602
259.58	1.559
259.79	1.593
260.00	1.521
260.22	1.598
260.43	1.621
260.64	1.607
260.85	1.711
261.06	1.749
261.27	1.799
261.48	1.808
261.69	1.842
261.90	1.938
262.12	1.858
262.33	1.972
262.54	1.932
262.75	1.850
262.96	1.886
263.17	1.846
263.38	1.963
263.59	1.835
263.80	1.847
264.01	1.892
264.22	1.859
264.44	1.955
264.65	1.893
264.86	1.931
265.07	1.759
265.28	1.762
265.49	1.720
265.70	1.665
265.91	1.725
266.12	1.683
266.33	1.601
266.54	1.626
266.75	1.575
266.97	1.598
267.18	1.594
267.39	1.677
267.60	1.672
267.81	1.642
268.02	1.532
268.23	1.632
268.44	1.724
268.65	1.787
268.86	1.871
269.07	2.005
269.28	2.015
269.49	2.106
269.70	2.105
269.92	2.105
270.13	2.102
270.34	2.251
270.55	2.115
270.76	1.995
270.97	2.069
271.18	1.967
271.39	1.785
271.60	1.790
271.81	1.769
272.02	1.727
272.23	1.749
272.44	1.777
272.65	1.744
272.86	1.727
273.07	1.739
273.28	1.704
273.49	1.658
273.71	1.763
273.92	1.813
274.13	1.629
274.34	1.587
274.55	1.519
274.76	1.462
274.97	1.383
275.18	1.367
275.39	1.504
275.60	1.485
275.81	1.619
276.02	1.520
276.23	1.442
276.44	1.547
276.65	1.588
276.86	1.646
277.07	1.650
277.28	1.736
277.49	1.807
277.70	1.637
277.91	1.685
278.12	1.568
278.33	1.593
278.54	1.654
278.75	1.640
278.96	1.666
279.17	1.720
279.39	1.666
279.60	1.553
279.81	1.552
280.02	1.520
280.23	1.456
280.44	1.479
280.65	1.433
280.86	1.402
281.07	1.403
281.28	1.434
281.49	1.267
281.70	1.377
281.91	1.457
282.12	1.424
282.33	1.547
282.54	1.576
282.75	1.637
282.96	1.733
283.17	1.740
283.38	1.752
283.59	1.778
283.80	1.741
284.01	1.687
284.22	1.667
284.43	1.691
284.64	1.644
284.85	1.579
285.06	1.537
285.27	1.466
285.48	1.438
285.69	1.415
285.90	1.405
286.11	1.500
286.32	1.448
286.53	1.434
286.74	1.442
286.95	1.393
287.16	1.486
287.37	1.455
287.58	1.514
287.79	1.535
288.00	1.608
288.21	1.472
288.42	1.412
288.63	1.499
288.84	1.509
289.05	1.491
289.26	1.574
289.47	1.542
289.68	1.518
289.89	1.516
290.10	1.446
290.31	1.313
290.51	1.360
290.72	1.402
290.93	1.406
291.14	1.367
291.35	1.312
291.56	1.271
291.77	1.180
291.98	1.163
292.19	1.180
292.40	1.251
292.61	1.313
292.82	1.385
293.03	1.444
293.24	1.434
293.45	1.436
293.66	1.482
293.87	1.482
294.08	1.507
294.29	1.596
294.50	1.535
294.71	1.522
294.92	1.578
295.13	1.538
295.34	1.429
295.55	1.395
295.76	1.335
295.96	1.324
296.17	1.336
296.38	1.384
296.59	1.316
296.80	1.298
297.01	1.285
297.22	1.281
297.43	1.285
297.64	1.329
297.85	1.324
298.06	1.357
298.27	1.366
298.48	1.337
298.69	1.289
298.90	1.310
299.11	1.355
299.32	1.349
299.53	1.341
299.73	1.367
299.94	1.382
300.15	1.386
300.36	1.385
300.57	1.382
300.78	1.422
300.99	1.440
301.20	1.486
301.41	1.481
301.62	1.544
301.83	1.553
302.04	1.458
302.25	1.422
302.45	1.377
302.66	1.375
302.87	1.358
303.08	1.330
303.29	1.271
303.50	1.254
303.71	1.281
303.92	1.249
304.13	1.209
304.34	1.244
304.55	1.251
304.76	1.315
304.96	1.291
305.17	1.256
305.38	1.296
305.59	1.390
305.80	1.366
306.01	1.348
306.22	1.293
306.43	1.301
306.64	1.282
306.85	1.278
307.06	1.231
307.26	1.205
307.47	1.189
307.68	1.202
307.89	1.150
308.10	1.127
308.31	1.082
308.52	1.149
308.73	1.165
308.94	1.170
309.14	1.199
309.35	1.209
309.56	1.287
309.77	1.295
309.98	1.308
310.19	1.325
310.40	1.345
310.61	1.318
310.82	1.301
311.02	1.271
311.23	1.320
311.44	1.265
311.65	1.257
311.86	1.193
312.07	1.210
312.28	1.122
312.49	1.067
312.69	1.052
312.90	1.088
313.11	1.011
313.32	1.005
313.53	0.980
313.74	0.958
313.95	0.946
314.16	0.945
314.36	0.932
314.57	1.026
314.78	1.058
314.99	1.138
315.20	1.190
315.41	1.330
315.62	1.265
315.82	1.249
316.03	1.259
316.24	1.311
316.45	1.399
316.66	1.418
316.87	1.435
317.08	1.445
317.28	1.442
317.49	1.383
317.70	1.336
317.91	1.464
318.12	1.460
318.33	1.497
318.54	1.461
318.74	1.390
318.95	1.381
319.16	1.353
319.37	1.356
319.58	1.357
319.79	1.316
319.99	1.296
320.20	1.266
320.41	1.315
320.62	1.285
320.83	1.236
321.04	1.252
321.24	1.266
321.45	1.295
321.66	1.297
321.87	1.253
322.08	1.329
322.29	1.297
322.49	1.312
322.70	1.257
322.91	1.299
323.12	1.363
323.33	1.331
323.54	1.300
323.74	1.242
323.95	1.218
324.16	1.234
324.37	1.208
324.58	1.286
324.79	1.211
324.99	1.227
325.20	1.252
325.41	1.253
325.62	1.297
325.83	1.324
326.03	1.260
326.24	1.293
326.45	1.266
326.66	1.253
326.87	1.197
327.07	1.219
327.28	1.196
327.49	1.153
327.70	1.142
327.91	1.121
328.11	1.111
328.32	1.177
328.53	1.165
328.74	1.158
328.95	1.151
329.15	1.192
329.36	1.223
329.57	1.219
329.78	1.215
329.99	1.209
330.19	1.185
330.40	1.135
330.61	1.136
330.82	1.091
331.03	1.039
331.23	1.100
331.44	1.112
331.65	1.083
331.86	1.165
332.07	1.168
332.27	1.120
332.48	1.136
332.69	1.182
332.90	1.163
333.10	1.211
333.31	1.291
333.52	1.221
333.73	1.202
333.94	1.232
334.14	1.185
334.35	1.159
334.56	1.194
334.77	1.210
334.97	1.212
335.18	1.151
335.39	1.151
335.60	1.112
335.80	1.061
336.01	1.042
336.22	0.980
336.43	0.981
336.64	1.030
336.84	1.042
337.05	1.044
337.26	1.022
337.47	1.093
337.67	1.064
337.88	1.041
338.09	1.071
338.30	1.096
338.50	1.152
338.71	1.125
338.92	1.112
339.13	1.123
339.33	1.105
339.54	1.086
339.75	1.068
339.96	1.067
340.16	1.078
340.37	1.130
340.58	1.108
340.79	1.117
340.99	1.131
341.20	1.087
341.41	1.009
341.62	1.027
341.82	1.035
342.03	1.008
342.24	0.986
342.44	1.033
342.65	1.024
342.86	1.006
343.07	0.965
343.27	1.026
343.48	1.049
343.69	1.099
343.90	1.108
344.10	1.103
344.31	1.115
344.52	1.201
344.72	1.130
344.93	1.095
345.14	1.108
345.35	1.086
345.55	1.045
345.76	1.023
345.97	1.065
346.18	1.032
346.38	1.034
346.59	1.026
346.80	0.985
347.00	1.028
347.21	1.061
347.42	1.062
347.62	1.089
347.83	1.037
348.04	1.034
348.25	0.952
348.45	0.976
348.66	0.985
348.87	1.019
349.07	1.006
349.28	0.984
349.49	0.924
349.70	0.956
349.90	0.950
350.11	0.984
350.32	0.965
350.52	1.031
350.73	1.022
350.94	1.041
351.14	1.012
351.35	1.033
351.56	1.028
351.76	1.084
351.97	1.060
352.18	1.100
352.39	1.100
352.59	1.158
352.80	1.114
353.01	1.143
353.21	1.140
353.42	1.157
353.63	1.093
353.83	1.101
354.04	1.080
354.25	1.062
354.45	1.022
354.66	1.040
354.87	0.994
355.07	1.020
355.28	0.993
355.49	0.991
355.69	1.000
355.90	1.021
356.11	1.047
356.31	1.058
356.52	1.052
356.73	1.115
356.93	1.116
357.14	1.149
357.35	1.132
357.55	1.132
357.76	1.103
357.97	1.061
358.17	1.121
358.38	1.133
358.59	1.133
358.79	1.132
359.00	1.069
359.21	1.037
359.41	1.023
359.62	1.035
359.83	1.012
360.03	1.046
360.24	1.107
360.44	1.067
360.65	1.002
360.86	0.975
361.06	0.984
361.27	0.994
361.48	0.994
361.68	0.994
361.89	0.983
362.10	0.997
362.30	0.989
362.51	0.936
362.72	0.956
362.92	0.998
363.13	1.003
363.33	0.994
363.54	1.011
363.75	1.022
363.95	1.024
364.16	1.042
364.37	1.058
364.57	1.048
364.78	1.066
364.98	1.057
365.19	1.021
365.40	1.058
365.60	1.062
365.81	1.077
366.02	1.073
366.22	1.064
366.43	1.056
366.63	1.034
366.84	1.016
367.05	0.996
367.25	0.971
367.46	0.982
367.66	0.996
367.87	1.010
368.08	0.983
368.28	1.007
368.49	1.009
368.69	0.994
368.90	0.989
369.11	1.025
369.31	1.030
369.52	1.068
369.72	1.092
369.93	1.061
370.14	1.071
370.34	1.056
370.55	1.016
370.75	1.025
370.96	1.013
371.17	1.045
371.37	1.035
371.58	1.047
371.78	1.020
371.99	1.030
372.20	1.025
372.40	0.997
372.61	1.021
372.81	1.047
373.02	1.041
373.23	1.031
373.43	1.023
373.64	1.014
373.84	1.014
374.05	1.051
374.25	1.031
374.46	1.035
374.67	1.041
374.87	1.054
375.08	1.050
375.28	1.041
375.49	1.079
375.69	1.092
375.90	1.075
376.11	1.063
376.31	1.026
376.52	1.029
376.72	1.000
376.93	1.001
377.13	0.978
377.34	0.971
377.55	0.986
377.75	0.964
377.96	0.938
378.16	0.960
378.37	0.993
378.57	1.022
378.78	1.024
378.98	1.042
379.19	1.063
379.40	1.042
379.60	1.021
379.81	1.008
380.01	1.027
380.22	1.025
380.42	1.010
380.63	0.987
380.83	0.961
381.04	0.939
381.24	0.949
381.45	0.933
381.66	0.950
381.86	0.972
382.07	0.966
382.27	0.964
382.48	0.956
382.68	0.943
382.89	0.948
383.09	0.950
383.30	0.965
383.50	0.943
383.71	0.932
383.91	0.925
384.12	0.931
384.32	0.950
384.53	0.946
384.73	0.936
384.94	0.948
385.15	0.966
385.35	0.967
385.56	0.991
385.76	0.981
385.97	1.004
386.17	1.022
386.38	1.004
386.58	0.995
386.79	1.025
386.99	1.040
387.20	1.045
387.40	1.007
387.61	1.014
387.81	0.985
388.02	1.004
388.22	0.993
388.43	0.977
388.63	0.976
388.84	0.996
389.04	0.991
389.25	1.000
389.45	0.988
389.66	1.037
389.86	1.025
390.07	1.041
390.27	1.057
390.48	1.039
390.68	1.056
390.89	1.073
391.09	1.086
391.30	1.070
391.50	1.062
391.71	1.089
391.91	1.045
392.12	1.075
392.32	1.082
392.53	1.099
392.73	1.106
392.94	1.086
393.14	1.088
393.35	1.068
393.55	1.071
393.75	1.078
393.96	1.050
394.16	1.045
394.37	1.021
394.57	1.012
394.78	0.991
394.98	0.996
395.19	0.988
395.39	0.974
395.60	0.963
395.80	0.970
396.01	0.963
396.21	0.986
396.42	0.983
396.62	0.988
396.83	0.983
397.03	1.007
397.23	1.008
397.44	1.021
397.64	1.026
397.85	1.029
398.05	1.014
398.26	1.011
398.46	0.998
398.67	1.032
398.87	1.015
399.08	0.993
399.28	0.971
399.48	0.947
399.69	0.925
399.89	0.925
400.10	0.924
400.30	0.920
400.51	0.915
400.71	0.923
400.92	0.905
401.12	0.919
401.32	0.935
401.53	0.915
401.73	0.931
401.94	0.968
402.14	0.979
402.35	0.990
402.55	0.990
402.75	1.002
402.96	1.012
403.16	1.032
403.37	1.011
403.57	1.008
403.78	1.032
403.98	1.040
404.18	1.023
404.39	1.009
404.59	0.999
404.80	1.015
405.00	1.011
405.21	0.995
405.41	0.970
405.61	0.997
405.82	1.022
406.02	1.017
406.23	1.026
406.43	1.051
406.63	1.063
406.84	1.083
407.04	1.073
407.25	1.097
407.45	1.127
407.65	1.121
407.86	1.110
408.06	1.080
408.27	1.058
408.47	1.052
408.67	1.022
408.88	1.018
409.08	0.986
409.29	0.969
409.49	0.948
409.69	0.921
409.90	0.959
410.10	0.960
410.31	0.966
410.51	0.993
410.71	1.004
410.92	0.998
411.12	0.994
411.33	1.017
411.53	1.022
411.73	1.022
411.94	1.049
412.14	1.038
412.34	1.034
412.55	1.070
412.75	1.069
412.96	1.059
413.16	1.065
413.36	1.060
413.57	1.047
413.77	1.053
413.97	1.073
414.18	1.061
414.38	1.031
414.59	1.077
414.79	1.020
414.99	1.008
415.20	1.018
415.40	1.042
415.60	1.040
415.81	1.026
416.01	1.030
416.21	1.021
416.42	1.022
416.62	1.038
416.83	0.999
417.03	1.024
417.23	1.025
417.44	1.025
417.64	1.005
417.84	1.015
418.05	1.054
418.25	1.049
418.45	1.038
418.66	1.032
418.86	1.025
419.06	1.031
419.27	1.022
419.47	1.029
419.67	1.008
419.88	1.009
420.08	1.008
420.28	0.979
420.49	0.992
420.69	0.992
420.89	0.991
421.10	1.000
421.30	1.001
421.50	1.014
421.71	1.015
421.91	1.030
422.11	1.036
422.32	1.037
422.52	1.042
422.72	1.047
422.93	1.064
423.13	1.075
423.33	1.075
423.54	1.071
423.74	1.064
423.94	1.055
424.15	1.053
424.35	1.054
424.55	1.057
424.76	1.057
424.96	1.046
425.16	1.040
425.36	1.037
425.57	1.027
425.77	1.026
425.97	1.028
426.18	1.041
426.38	1.035
426.58	1.042
426.79	1.039
426.99	1.039
427.19	1.044
427.39	1.042
427.60	1.031
427.80	1.053
428.00	1.078
428.21	1.071
428.41	1.073
428.61	1.074
428.82	1.064
429.02	1.082
429.22	1.102
429.42	1.109
429.63	1.109
429.83	1.118
430.03	1.116
430.24	1.109
430.44	1.117
430.64	1.101
430.84	1.097
431.05	1.088
431.25	1.077
431.45	1.062
431.65	1.042
431.86	1.033
432.06	1.029
432.26	1.035
432.47	1.028
432.67	1.033
432.87	1.051
433.07	1.048
433.28	1.074
433.48	1.075
433.68	1.075
433.88	1.085
434.09	1.110
434.29	1.105
434.49	1.093
434.69	1.086
434.90	1.086
435.10	1.076
435.30	1.094
435.51	1.080
435.71	1.080
435.91	1.087
436.11	1.088
436.32	1.064
436.52	1.076
436.72	1.096
436.92	1.107
437.13	1.115
437.33	1.109
437.53	1.111
437.73	1.099
437.93	1.094
438.14	1.097
438.34	1.091
438.54	1.092
438.74	1.094
438.95	1.072
439.15	1.076
439.35	1.073
439.55	1.076
439.76	1.071
439.96	1.079
440.16	1.080
440.36	1.082
440.56	1.083
440.77	1.078
440.97	1.078
441.17	1.080
441.37	1.073
441.58	1.069
441.78	1.086
441.98	1.093
442.18	1.092
442.38	1.095
442.59	1.090
442.79	1.091
442.99	1.113
443.19	1.096
443.40	1.122
443.60	1.138
443.80	1.128
444.00	1.113
444.20	1.103
444.41	1.094
444.61	1.104
444.81	1.125
445.01	1.129
445.21	1.118
445.42	1.129
445.62	1.116
445.82	1.110
446.02	1.124
446.22	1.121
446.43	1.126
446.63	1.126
446.83	1.123
447.03	1.119
447.23	1.119
447.44	1.123
447.64	1.124
447.84	1.131
448.04	1.136
448.24	1.124
448.44	1.121
448.65	1.119
448.85	1.129
449.05	1.132
449.25	1.110
449.45	1.116
449.65	1.126
449.86	1.127
450.06	1.129
450.26	1.129
450.46	1.132
450.66	1.145
450.87	1.150
451.07	1.152
451.27	1.129
451.47	1.145
451.67	1.155
451.87	1.153
452.08	1.154
452.28	1.151
452.48	1.150
452.68	1.155
452.88	1.146
453.08	1.151
453.28	1.148
453.49	1.164
453.69	1.174
453.89	1.160
454.09	1.160
454.29	1.151
454.49	1.164
454.70	1.165
454.90	1.172
455.10	1.178
455.30	1.177
455.50	1.180
455.70	1.182
455.90	1.173
456.11	1.172
456.31	1.171
456.51	1.177
456.71	1.169
456.91	1.180
457.11	1.182
457.31	1.176
457.51	1.180
457.72	1.183
457.92	1.183
458.12	1.170
458.32	1.177
458.52	1.184
458.72	1.192
458.92	1.183
459.12	1.187
459.33	1.182
459.53	1.193
459.73	1.197
459.93	1.199
460.13	1.208
460.33	1.212
460.53	1.211
460.73	1.201
460.93	1.198
461.14	1.210
461.34	1.210
461.54	1.214
461.74	1.211
461.94	1.209
462.14	1.214
462.34	1.210
462.54	1.215
462.74	1.205
462.95	1.213
463.15	1.219
463.35	1.208
463.55	1.203
463.75	1.192
463.95	1.198
464.15	1.191
464.35	1.204
464.55	1.192
464.75	1.188
464.95	1.203
465.16	1.208
465.36	1.201
465.56	1.208
465.76	1.208
465.96	1.221
466.16	1.226
466.36	1.223
466.56	1.208
466.76	1.212
466.96	1.222
467.16	1.226
467.36	1.225
467.57	1.226
467.77	1.227
467.97	1.227
468.17	1.230
468.37	1.217
468.57	1.228
468.77	1.233
468.97	1.242
469.17	1.243
469.37	1.250
469.57	1.255
469.77	1.260
469.97	1.253
470.17	1.254
470.37	1.250
470.57	1.253
470.78	1.241
470.98	1.252
471.18	1.254
471.38	1.247
471.58	1.248
471.78	1.248
471.98	1.262
472.18	1.276
472.38	1.277
472.58	1.296
472.78	1.317
472.98	1.333
473.18	1.324
473.38	1.328
473.58	1.342
473.78	1.333
473.98	1.332
474.18	1.334
474.38	1.322
474.58	1.321
474.78	1.315
474.98	1.318
475.18	1.328
475.38	1.330
475.58	1.327
475.79	1.319
475.99	1.322
476.19	1.330
476.39	1.320
476.59	1.330
476.79	1.334
476.99	1.325
477.19	1.317
477.39	1.298
477.59	1.299
477.79	1.302
477.99	1.301
478.19	1.303
478.39	1.302
478.59	1.307
478.79	1.301
478.99	1.308
479.19	1.328
479.39	1.333
479.59	1.354
479.79	1.357
479.99	1.359
480.19	1.361
480.39	1.356
480.59	1.356
480.79	1.361
480.99	1.367
481.19	1.371
481.39	1.359
481.59	1.351
481.79	1.344
481.99	1.350
482.19	1.356
482.39	1.368
482.59	1.382
482.79	1.390
482.99	1.400
483.19	1.428
483.39	1.459
483.59	1.486
483.79	1.494
483.99	1.493
484.19	1.490
484.39	1.491
484.58	1.493
484.78	1.494
484.98	1.496
485.18	1.500
485.38	1.494
485.58	1.472
485.78	1.445
485.98	1.440
486.18	1.440
486.38	1.449
486.58	1.450
486.78	1.448
486.98	1.454
487.18	1.457
487.38	1.457
487.58	1.456
487.78	1.464
487.98	1.471
488.18	1.471
488.38	1.470
488.58	1.468
488.78	1.465
488.98	1.470
489.18	1.466
489.37	1.460
489.57	1.457
489.77	1.457
489.97	1.449
490.17	1.449
490.37	1.449
490.57	1.459
490.77	1.467
490.97	1.481
491.17	1.481
491.37	1.491
491.57	1.504
491.77	1.509
491.97	1.510
492.17	1.512
492.37	1.515
492.56	1.518
492.76	1.520
492.96	1.518
493.16	1.515
493.36	1.521
493.56	1.516
493.76	1.515
493.96	1.513
494.16	1.512
494.36	1.518
494.56	1.522
494.76	1.531
494.95	1.531
495.15	1.538
495.35	1.539
495.55	1.539
495.75	1.543
495.95	1.544
496.15	1.558
496.35	1.568
496.55	1.573
496.75	1.577
496.95	1.569
497.14	1.572
497.34	1.575
497.54	1.579
497.74	1.587
497.94	1.587
498.14	1.588
498.34	1.588
498.54	1.587
498.74	1.579
498.93	1.585
499.13	1.588
499.33	1.594
499.53	1.599
499.73	1.607
499.93	1.598
500.13	1.607
500.33	1.616
500.53	1.619
500.72	1.631
500.92	1.637
501.12	1.639
501.32	1.638
501.52	1.635
501.72	1.631
501.92	1.627
502.12	1.636
502.31	1.642
502.51	1.637
502.71	1.643
502.91	1.633
503.11	1.646
503.31	1.652
503.51	1.654
503.70	1.657
503.90	1.662
504.10	1.676
504.30	1.668
504.50	1.667
504.70	1.680
504.90	1.675
505.09	1.678
505.29	1.671
505.49	1.669
505.69	1.686
505.89	1.694
506.09	1.692
506.29	1.691
506.48	1.709
506.68	1.716
506.88	1.717
507.08	1.733
507.28	1.754
507.48	1.766
507.67	1.772
507.87	1.765
508.07	1.767
508.27	1.772
508.47	1.777
508.67	1.783
508.86	1.788
509.06	1.785
509.26	1.784
509.46	1.786
509.66	1.783
509.85	1.785
510.05	1.801
510.25	1.807
510.45	1.819
510.65	1.816
510.85	1.812
511.04	1.816
511.24	1.829
511.44	1.835
511.64	1.829
511.84	1.838
512.03	1.842
512.23	1.852
512.43	1.854
512.63	1.854
512.83	1.865
513.02	1.870
513.22	1.870
513.42	1.878
513.62	1.879
513.82	1.887
514.01	1.908
514.21	1.911
514.41	1.903
514.61	1.905
514.81	1.908
515.00	1.897
515.20	1.906
515.40	1.915
515.60	1.906
515.80	1.915
515.99	1.907
516.19	1.891
516.39	1.900
516.59	1.909
516.78	1.918
516.98	1.926
517.18	1.939
517.38	1.940
517.58	1.939
517.77	1.955
517.97	1.959
518.17	1.982
518.37	1.992
518.56	2.003
518.76	2.012
518.96	2.017
519.16	2.015
519.36	2.021
519.55	2.022
519.75	2.031
519.95	2.033
520.15	2.031
520.34	2.035
520.54	2.038
520.74	2.039
520.94	2.032
521.13	2.035
521.33	2.039
521.53	2.040
521.73	2.044
521.92	2.048
522.12	2.055
522.32	2.066
522.52	2.066
522.71	2.075
522.91	2.072
523.11	2.082
523.31	2.084
523.50	2.097
523.70	2.109
523.90	2.113
524.09	2.120
524.29	2.120
524.49	2.131
524.69	2.139
524.88	2.143
525.08	2.149
525.28	2.148
525.48	2.154
525.67	2.159
525.87	2.169
526.07	2.176
526.26	2.175
526.46	2.186
526.66	2.193
526.86	2.197
527.05	2.197
527.25	2.204
527.45	2.217
527.64	2.221
527.84	2.230
528.04	2.241
528.24	2.257
528.43	2.279
528.63	2.285
528.83	2.285
529.02	2.288
529.22	2.294
529.42	2.297
529.62	2.302
529.81	2.304
530.01	2.307
530.21	2.301
530.40	2.299
530.60	2.286
530.80	2.285
530.99	2.289
531.19	2.286
531.39	2.287
531.58	2.286
531.78	2.286
531.98	2.292
532.18	2.293
532.37	2.311
532.57	2.322
532.77	2.330
532.96	2.334
533.16	2.341
533.36	2.355
533.55	2.363
533.75	2.372
533.95	2.375
534.14	2.379
534.34	2.389
534.54	2.387
534.73	2.386
534.93	2.391
535.13	2.389
535.32	2.392
535.52	2.386
535.72	2.388
535.91	2.401
536.11	2.402
536.31	2.415
536.50	2.422
536.70	2.424
536.90	2.432
537.09	2.441
537.29	2.451
537.48	2.453
537.68	2.461
537.88	2.465
538.07	2.462
538.27	2.477
538.47	2.481
538.66	2.485
538.86	2.488
539.06	2.481
539.25	2.484
539.45	2.489
539.65	2.503
539.84	2.521
540.04	2.523
540.23	2.534
540.43	2.543
540.63	2.556
540.82	2.570
541.02	2.584
541.22	2.604
541.41	2.613
541.61	2.615
541.80	2.617
542.00	2.614
542.20	2.619
542.39	2.622
542.59	2.625
542.79	2.626
542.98	2.622
543.18	2.618
543.37	2.621
543.57	2.616
543.77	2.631
543.96	2.632
544.16	2.633
544.35	2.642
544.55	2.648
544.75	2.653
544.94	2.655
545.14	2.666
545.33	2.685
545.53	2.680
545.73	2.693
545.92	2.687
546.12	2.694
546.31	2.707
546.51	2.710
546.71	2.713
546.90	2.716
547.10	2.724
547.29	2.723
547.49	2.728
547.69	2.746
547.88	2.746
548.08	2.751
548.27	2.753
548.47	2.748
548.66	2.749
548.86	2.750
549.06	2.752
549.25	2.764
549.45	2.780
549.64	2.779
549.84	2.778
550.03	2.780
550.23	2.787
550.43	2.801
550.62	2.813
550.82	2.823
551.01	2.835
551.21	2.840
551.40	2.839
551.60	2.850
551.80	2.857
551.99	2.859
552.19	2.872
552.38	2.874
552.58	2.870
552.77	2.884
552.97	2.891
553.16	2.880
553.36	2.881
553.56	2.891
553.75	2.878
553.95	2.865
554.14	2.865
554.34	2.873
554.53	2.891
554.73	2.901
554.92	2.895
555.12	2.900
555.31	2.920
555.51	2.936
555.70	2.934
555.90	2.950
556.10	2.971
556.29	2.983
556.49	2.987
556.68	2.989
556.88	2.989
557.07	3.001
557.27	3.014
557.46	3.005
557.66	3.008
557.85	3.008
558.05	3.012
558.24	3.016
558.44	3.019
558.63	3.011
558.83	3.004
559.02	3.021
559.22	3.028
559.41	3.031
559.61	3.048
559.80	3.057
560.00	3.055
560.19	3.066
560.39	3.066
560.58	3.065
560.78	3.086
560.97	3.098
561.17	3.102
561.36	3.097
561.56	3.090
561.75	3.099
561.95	3.102
562.14	3.112
562.34	3.106
562.53	3.116
562.73	3.124
562.92	3.127
563.12	3.133
563.31	3.123
563.51	3.141
563.70	3.151
563.90	3.162
564.09	3.158
564.29	3.173
564.48	3.181
564.68	3.193
564.87	3.202
565.07	3.195
565.26	3.207
565.45	3.223
565.65	3.225
565.84	3.235
566.04	3.219
566.23	3.234
566.43	3.248
566.62	3.258
566.82	3.256
567.01	3.254
567.21	3.267
567.40	3.265
567.60	3.276
567.79	3.277
567.98	3.290
568.18	3.316
568.37	3.322
568.57	3.324
568.76	3.329
568.96	3.340
569.15	3.355
569.35	3.361
569.54	3.359
569.73	3.360
569.93	3.374
570.12	3.365
570.32	3.356
570.51	3.357
570.71	3.353
570.90	3.364
571.09	3.374
571.29	3.390
571.48	3.399
571.68	3.417
571.87	3.418
572.07	3.423
572.26	3.434
572.45	3.453
572.65	3.457
572.84	3.467
573.04	3.474
573.23	3.475
573.43	3.480
573.62	3.486
573.81	3.500
574.01	3.514
574.20	3.504
574.40	3.502
574.59	3.503
574.78	3.507
574.98	3.512
575.17	3.515
575.37	3.522
575.56	3.513
575.75	3.510
575.95	3.513
576.14	3.506
576.34	3.511
576.53	3.520
576.72	3.522
576.92	3.532
577.11	3.541
577.31	3.550
577.50	3.552
577.69	3.569
577.89	3.580
578.08	3.575
578.28	3.590
578.47	3.601
578.66	3.609
578.86	3.624
579.05	3.639
579.24	3.644
579.44	3.652
579.63	3.652
579.83	3.655
580.02	3.658
580.21	3.660
580.41	3.664
580.60	3.680
580.79	3.690
580.99	3.698
581.18	3.684
581.38	3.684
581.57	3.684
581.76	3.694
581.96	3.705
582.15	3.720
582.34	3.725
582.54	3.730
582.73	3.743
582.92	3.740
583.12	3.742
583.31	3.762
583.50	3.760
583.70	3.770
583.89	3.774
584.08	3.770
584.28	3.785
584.47	3.797
584.66	3.804
584.86	3.795
585.05	3.810
585.24	3.808
585.44	3.807
585.63	3.839
585.82	3.832
586.02	3.846
586.21	3.860
586.40	3.856
586.60	3.869
586.79	3.874
586.98	3.881
587.18	3.896
587.37	3.900
587.56	3.912
587.76	3.910
587.95	3.930
588.14	3.936
588.34	3.933
588.53	3.928
588.72	3.934
588.92	3.940
589.11	3.963
589.30	3.944
589.50	3.960
589.69	3.962
589.88	3.954
590.07	3.957
590.27	3.961
590.46	3.961
590.65	3.970
590.85	3.973
591.04	3.975
591.23	3.968
591.43	3.991
591.62	4.000
591.81	3.990
592.00	3.995
592.20	4.002
592.39	4.016
592.58	4.035
592.78	4.037
592.97	4.032
593.16	4.032
593.35	4.038
593.55	4.032
593.74	4.019
593.93	4.046
594.13	4.056
594.32	4.065
594.51	4.078
594.70	4.085
594.90	4.083
595.09	4.085
595.28	4.089
595.47	4.096
595.67	4.116
595.86	4.124
596.05	4.133
596.24	4.139
596.44	4.139
596.63	4.131
596.82	4.137
597.02	4.144
597.21	4.154
597.40	4.180
597.59	4.178
597.79	4.160
597.98	4.172
598.17	4.165
598.36	4.173
598.56	4.186
598.75	4.184
598.94	4.190
599.13	4.215
599.32	4.229
599.52	4.212
599.71	4.230
599.90	4.242
600.09	4.253
600.29	4.256
600.48	4.262
600.67	4.251
600.86	4.263
601.06	4.262
601.25	4.273
601.44	4.281
601.63	4.296
601.82	4.303
602.02	4.336
602.21	4.341
602.40	4.365
602.59	4.367
602.79	4.390
602.98	4.417
603.17	4.424
603.36	4.424
603.55	4.423
603.75	4.434
603.94	4.427
604.13	4.425
604.32	4.426
604.51	4.423
604.71	4.446
604.90	4.444
605.09	4.442
605.28	4.444
605.47	4.448
605.67	4.461
605.86	4.457
606.05	4.483
606.24	4.481
606.43	4.486
606.63	4.493
606.82	4.476
607.01	4.498
607.20	4.483
607.39	4.492
607.59	4.476
607.78	4.481
607.97	4.489
608.16	4.471
608.35	4.484
608.54	4.484
608.74	4.497
608.93	4.513
609.12	4.503
609.31	4.515
609.50	4.535
609.69	4.572
609.89	4.568
610.08	4.581
610.27	4.596
610.46	4.610
610.65	4.635
610.84	4.635
611.04	4.647
611.23	4.658
611.42	4.677
611.61	4.673
611.80	4.656
611.99	4.658
612.19	4.670
612.38	4.685
612.57	4.684
612.76	4.676
612.95	4.698
613.14	4.693
613.33	4.705
613.53	4.704
613.72	4.719
613.91	4.728
614.10	4.746
614.29	4.741
614.48	4.745
614.67	4.757
614.86	4.763
615.06	4.751
615.25	4.765
615.44	4.776
615.63	4.776
615.82	4.773
616.01	4.788
616.20	4.787
616.39	4.804
616.59	4.784
616.78	4.787
616.97	4.813
617.16	4.827
617.35	4.826
617.54	4.800
617.73	4.820
617.92	4.828
618.12	4.829
618.31	4.828
618.50	4.839
618.69	4.864
618.88	4.867
619.07	4.859
619.26	4.864
619.45	4.876
619.64	4.902
619.83	4.919
620.03	4.924
620.22	4.935
620.41	4.953
620.60	4.950
620.79	4.956
620.98	4.944
621.17	4.941
621.36	4.954
621.55	4.968
621.74	4.976
621.93	4.971
622.12	4.974
622.32	4.986
622.51	4.987
622.70	4.993
622.89	4.996
623.08	5.011
623.27	5.039
623.46	5.031
623.65	5.028
623.84	5.029
624.03	5.032
624.22	5.046
624.41	5.039
624.60	5.055
624.79	5.048
624.99	5.050
625.18	5.064
625.37	5.048
625.56	5.060
625.75	5.072
625.94	5.080
626.13	5.083
626.32	5.081
626.51	5.100
626.70	5.099
626.89	5.120
627.08	5.131
627.27	5.141
627.46	5.139
627.65	5.153
627.84	5.162
628.03	5.164
628.22	5.171
628.41	5.191
628.60	5.193
628.79	5.199
628.98	5.195
629.17	5.182
629.37	5.185
629.56	5.203
629.75	5.199
629.94	5.187
630.13	5.192
630.32	5.197
630.51	5.200
630.70	5.197
630.89	5.205
631.08	5.219
631.27	5.251
631.46	5.259
631.65	5.272
631.84	5.279
632.03	5.281
632.22	5.283
632.41	5.287
632.60	5.283
632.79	5.296
632.98	5.302
633.17	5.300
633.36	5.318
633.55	5.306
633.74	5.319
633.93	5.325
634.12	5.342
634.31	5.356
634.50	5.381
634.69	5.386
634.88	5.393
635.07	5.402
635.26	5.393
635.45	5.379
635.64	5.399
635.83	5.396
636.02	5.394
636.21	5.415
636.40	5.423
636.59	5.407
636.78	5.402
636.96	5.397
637.15	5.395
637.34	5.399
637.53	5.411
637.72	5.404
637.91	5.406
638.10	5.418
638.29	5.425
638.48	5.440
638.67	5.430
638.86	5.440
639.05	5.452
639.24	5.475
639.43	5.517
639.62	5.513
639.81	5.526
640.00	5.525
640.19	5.549
640.38	5.564
640.57	5.559
640.76	5.585
640.95	5.592
641.14	5.598
641.32	5.612
641.51	5.604
641.70	5.627
641.89	5.650
642.08	5.673
642.27	5.675
642.46	5.654
642.65	5.650
642.84	5.647
643.03	5.663
643.22	5.653
643.41	5.639
643.60	5.652
643.79	5.659
643.98	5.663
644.16	5.662
644.35	5.643
644.54	5.635
644.73	5.645
644.92	5.667
645.11	5.658
645.30	5.687
645.49	5.701
645.68	5.700
645.87	5.689
646.06	5.700
646.24	5.717
646.43	5.730
646.62	5.747
646.81	5.768
647.00	5.768
647.19	5.776
647.38	5.759
647.57	5.748
647.76	5.756
647.95	5.764
648.13	5.750
648.32	5.759
648.51	5.769
648.70	5.761
648.89	5.754
649.08	5.746
649.27	5.771
649.46	5.786
649.65	5.792
649.83	5.803
650.02	5.802
650.21	5.846
650.40	5.849
650.59	5.841
650.78	5.880
650.97	5.895
651.16	5.918
651.34	5.904
651.53	5.906
651.72	5.915
651.91	5.900
652.10	5.910
652.29	5.882
652.48	5.887
652.66	5.910
652.85	5.910
653.04	5.912
653.23	5.889
653.42	5.902
653.61	5.901
653.80	5.895
653.98	5.915
654.17	5.917
654.36	5.932
654.55	5.932
654.74	5.937
654.93	5.940
655.11	5.929
655.30	5.959
655.49	5.991
655.68	6.013
655.87	6.036
656.06	6.020
656.24	6.032
656.43	6.027
656.62	6.035
656.81	6.036
657.00	6.033
657.19	6.049
657.37	6.050
657.56	6.036
657.75	5.976
657.94	5.999
658.13	6.026
658.31	6.034
658.50	6.062
658.69	6.076
658.88	6.079
659.07	6.078
659.26	6.085
659.44	6.087
659.63	6.108
659.82	6.161
660.01	6.161
660.20	6.169
660.38	6.191
660.57	6.199
660.76	6.183
660.95	6.197
661.14	6.227
661.32	6.234
661.51	6.264
661.70	6.252
661.89	6.286
662.08	6.292
662.26	6.303
662.45	6.282
662.64	6.269
662.83	6.309
663.01	6.303
663.20	6.308
663.39	6.305
663.58	6.294
663.77	6.306
663.95	6.298
664.14	6.296
664.33	6.297
664.52	6.320
664.70	6.326
664.89	6.310
665.08	6.321
665.27	6.315
665.45	6.325
665.64	6.320
665.83	6.326
666.02	6.335
666.20	6.328
666.39	6.329
666.58	6.325
666.77	6.322
666.95	6.316
667.14	6.320
667.33	6.333
667.52	6.357
667.70	6.387
667.89	6.386
668.08	6.391
668.27	6.405
668.45	6.413
668.64	6.433
668.83	6.447
669.02	6.476
669.20	6.470
669.39	6.473
669.58	6.469
669.77	6.459
669.95	6.465
670.14	6.471
670.33	6.480
670.51	6.491
670.70	6.500
670.89	6.514
671.08	6.504
671.26	6.537
671.45	6.538
671.64	6.538
671.82	6.557
672.01	6.568
672.20	6.573
672.39	6.569
672.57	6.592
672.76	6.576
672.95	6.584
673.13	6.607
673.32	6.600
673.51	6.608
673.70	6.619
673.88	6.637
674.07	6.646
674.26	6.649
674.44	6.690
674.63	6.679
674.82	6.715
675.00	6.719
675.19	6.715
675.38	6.715
675.56	6.711
675.75	6.713
675.94	6.693
676.12	6.679
676.31	6.696
676.50	6.670
676.69	6.679
676.87	6.692
677.06	6.670
677.25	6.650
677.43	6.695
677.62	6.697
677.81	6.716
677.99	6.731
678.18	6.753
678.37	6.757
678.55	6.763
678.74	6.760
678.93	6.769
679.11	6.784
679.30	6.795
679.48	6.774
679.67	6.790
679.86	6.815
680.04	6.817
680.23	6.830
680.42	6.830
680.60	6.855
680.79	6.883
680.98	6.874
681.16	6.892
681.35	6.925
681.54	6.920
681.72	6.945
681.91	6.933
682.10	6.966
682.28	6.951
682.47	6.959
682.65	6.969
682.84	6.974
683.03	6.979
683.21	6.990
683.40	6.974
683.59	7.011
683.77	6.991
683.96	7.006
684.14	7.005
684.33	7.024
684.52	7.057
684.70	7.046
684.89	7.032
685.07	7.027
685.26	7.033
685.45	7.040
685.63	7.014
685.82	7.048
686.00	7.045
686.19	7.054
686.38	7.073
686.56	7.079
686.75	7.101
686.93	7.111
687.12	7.118
687.31	7.130
687.49	7.155
687.68	7.181
687.86	7.190
688.05	7.189
688.24	7.205
688.42	7.213
688.61	7.194
688.79	7.219
688.98	7.234
689.17	7.250
689.35	7.237
689.54	7.236
689.72	7.208
689.91	7.190
690.09	7.211
690.28	7.194
690.47	7.165
690.65	7.171
690.84	7.141
691.02	7.132
691.21	7.112
691.39	7.129
691.58	7.139
691.76	7.173
691.95	7.189
692.14	7.189
692.32	7.187
692.51	7.240
692.69	7.243
692.88	7.247
693.06	7.229
693.25	7.256
693.43	7.242
693.62	7.273
693.81	7.261
693.99	7.266
694.18	7.256
694.36	7.236
694.55	7.206
694.73	7.216
694.92	7.224
695.10	7.224
695.29	7.213
695.47	7.244
695.66	7.234
695.84	7.286
696.03	7.278
696.21	7.322
696.40	7.339
696.59	7.357
696.77	7.345
696.96	7.354
697.14	7.376
697.33	7.431
697.51	7.465
697.70	7.468
697.88	7.472
698.07	7.486
698.25	7.472
698.44	7.525
698.62	7.530
698.81	7.561
698.99	7.588
699.18	7.601
699.36	7.587
699.55	7.574
699.73	7.570
699.92	7.557
700.10	7.562
700.29	7.585
700.47	7.557
700.66	7.566
700.84	7.551
701.03	7.507
701.21	7.530
701.40	7.526
701.58	7.530
701.77	7.533
701.95	7.536
702.13	7.569
702.32	7.546
702.50	7.575
702.69	7.594
702.87	7.594
703.06	7.628
703.24	7.592
703.43	7.590
703.61	7.604
703.80	7.601
703.98	7.584
704.17	7.522
704.35	7.513
704.54	7.510
704.72	7.508
704.90	7.541
705.09	7.546
705.27	7.639
705.46	7.674
705.64	7.608
705.83	7.619
706.01	7.644
706.20	7.703
706.38	7.731
706.56	7.710
706.75	7.720
706.93	7.692
707.12	7.721
707.30	7.683
707.49	7.674
707.67	7.763
707.86	7.779
708.04	7.785
708.22	7.760
708.41	7.779
708.59	7.800
708.78	7.805
708.96	7.815
709.14	7.852
709.33	7.854
709.51	7.845
709.70	7.818
709.88	7.831
710.07	7.854
710.25	7.897
710.43	7.907
710.62	7.942
710.80	7.928
710.99	7.970
711.17	7.930
711.35	7.946
711.54	7.968
711.72	8.000
711.91	8.050
712.09	8.060
712.27	8.038
712.46	8.060
712.64	8.047
712.83	8.061
713.01	8.048
713.19	8.069
713.38	8.034
713.56	8.059
713.75	8.052
713.93	8.014
714.11	7.991
714.30	8.014
714.48	7.991
714.66	8.008
714.85	7.989
715.03	8.000
715.22	7.990
715.40	8.027
715.58	8.025
715.77	8.058
715.95	8.070
716.13	8.094
716.32	8.108
716.50	8.103
716.68	8.114
716.87	8.166
717.05	8.182
717.24	8.183
717.42	8.184
717.60	8.154
717.79	8.136
717.97	8.140
718.15	8.130
718.34	8.127
718.52	8.163
718.70	8.133
718.89	8.106
719.07	8.061
719.25	8.091
719.44	8.123
719.62	8.149
719.80	8.130
719.99	8.099
720.17	8.118
720.35	8.118
720.54	8.086
720.72	8.078
720.90	8.087
721.09	8.141
721.27	8.137
721.45	8.093
721.64	8.105
721.82	8.132
722.00	8.142
722.19	8.136
722.37	8.160
722.55	8.166
722.74	8.238
722.92	8.235
723.10	8.243
723.28	8.239
723.47	8.297
723.65	8.318
723.83	8.329
724.02	8.313
724.20	8.350
724.38	8.335
724.57	8.339
724.75	8.322
724.93	8.319
725.11	8.301
725.30	8.279
725.48	8.274
725.66	8.261
725.85	8.256
726.03	8.272
726.21	8.254
726.39	8.236
726.58	8.274
726.76	8.252
726.94	8.281
727.13	8.265
727.31	8.297
727.49	8.301
727.67	8.305
727.86	8.306
728.04	8.363
728.22	8.388
728.40	8.430
728.59	8.439
728.77	8.451
728.95	8.462
729.13	8.491
729.32	8.519
729.50	8.518
729.68	8.558
729.86	8.583
730.05	8.587
730.23	8.569
730.41	8.565
730.59	8.538
730.78	8.578
730.96	8.569
731.14	8.605
731.32	8.597
731.51	8.615
731.69	8.606
731.87	8.600
732.05	8.596
732.24	8.634
732.42	8.671
732.60	8.690
732.78	8.659
732.97	8.667
733.15	8.677
733.33	8.706
733.51	8.709
733.69	8.693
733.88	8.731
734.06	8.736
734.24	8.694
734.42	8.691
734.60	8.712
734.79	8.729
734.97	8.736
735.15	8.708
735.33	8.698
735.52	8.683
735.70	8.693
735.88	8.657
736.06	8.670
736.24	8.724
736.43	8.706
736.61	8.720
736.79	8.727
736.97	8.765
737.15	8.790
737.34	8.778
737.52	8.769
737.70	8.804
737.88	8.841
738.06	8.819
738.24	8.871
738.43	8.916
738.61	8.919
738.79	8.952
738.97	8.946
739.15	8.937
739.33	8.939
739.52	8.996
739.70	8.968
739.88	8.935
740.06	8.922
740.24	8.868
740.42	8.830
740.61	8.789
740.79	8.794
740.97	8.792
741.15	8.839
741.33	8.888
741.51	8.864
741.70	8.891
741.88	8.976
742.06	9.011
742.24	9.054
742.42	9.087
742.60	9.138
742.78	9.131
742.97	9.126
743.15	9.102
743.33	9.119
743.51	9.103
743.69	9.142
743.87	9.042
744.05	9.064
744.24	9.015
744.42	8.998
744.60	8.998
744.78	9.008
744.96	9.047
745.14	9.070
745.32	9.058
745.50	9.108
745.69	9.098
745.87	9.163
746.05	9.157
746.23	9.179
746.41	9.184
746.59	9.147
746.77	9.107
746.95	9.086
747.13	9.037
747.32	9.008
747.50	8.968
747.68	8.924
747.86	8.923
748.04	8.970
748.22	8.996
748.40	9.014
748.58	9.014
748.76	9.057
748.94	9.095
749.13	9.140
749.31	9.135
749.49	9.170
749.67	9.228
749.85	9.244
750.03	9.215
750.21	9.178
750.39	9.205
750.57	9.261
750.75	9.261
750.93	9.242
751.11	9.237
751.30	9.295
751.48	9.340
751.66	9.328
751.84	9.340
752.02	9.353
752.20	9.403
752.38	9.367
752.56	9.392
752.74	9.385
752.92	9.383
753.10	9.426
753.28	9.427
753.46	9.366
753.64	9.386
753.82	9.351
754.00	9.329
754.18	9.309
754.37	9.293
754.55	9.282
754.73	9.299
754.91	9.323
755.09	9.288
755.27	9.286
755.45	9.302
755.63	9.294
755.81	9.336
755.99	9.340
756.17	9.343
756.35	9.372
756.53	9.334
756.71	9.354
756.89	9.332
757.07	9.328
757.25	9.344
757.43	9.334
757.61	9.317
757.79	9.326
757.97	9.322
758.15	9.398
758.33	9.454
758.51	9.503
758.69	9.508
758.87	9.557
759.05	9.545
759.23	9.525
759.41	9.582
759.59	9.641
759.77	9.646
759.95	9.670
760.13	9.646
760.31	9.664
760.49	9.685
760.67	9.705
760.85	9.695
761.03	9.738
761.21	9.773
761.39	9.782
761.57	9.803
761.75	9.823
761.93	9.834
762.11	9.842
762.29	9.824
762.47	9.862
762.65	9.856
762.83	9.895
763.01	9.946
763.19	9.955
763.37	9.983
763.55	10.048
763.73	10.104
763.91	10.186
764.09	10.242
764.27	10.279
764.45	10.309
764.63	10.344
764.81	10.367
764.99	10.371
765.16	10.377
765.34	10.381
765.52	10.360
765.70	10.343
765.88	10.345
766.06	10.303
766.24	10.304
766.42	10.273
766.60	10.289
766.78	10.233
766.96	10.221
767.14	10.223
767.32	10.209
767.50	10.133
767.68	10.111
767.86	10.017
768.03	10.051
768.21	10.016
768.39	9.968
768.57	9.883
768.75	9.926
768.93	9.953
769.11	9.961
769.29	9.976
769.47	10.001
769.65	9.994
769.83	10.052
770.01	10.075
770.19	10.106
770.36	10.160
770.54	10.199
770.72	10.193
770.90	10.163
771.08	10.156
771.26	10.117
771.44	10.157
771.62	10.156
771.80	10.139
771.98	10.096
772.15	10.073
772.33	10.065
772.51	10.051
772.69	10.028
772.87	10.055
773.05	9.988
773.23	9.994
773.41	9.938
773.58	9.944
773.76	10.003
773.94	9.960
774.12	9.949
774.30	10.005
774.48	10.015
774.66	9.964
774.84	9.829
775.01	9.935
775.19	9.972
775.37	10.113
775.55	10.085
775.73	10.069
775.91	10.101
776.09	10.117
776.26	10.017
776.44	10.020
776.62	10.142
776.80	10.167
776.98	10.132
777.16	10.064
777.34	9.987
777.51	9.977
777.69	10.000
777.87	10.009
778.05	10.028
778.23	10.092
778.41	10.108
778.58	10.051
778.76	10.136
778.94	10.143
779.12	10.297
779.30	10.286
779.48	10.325
779.65	10.314
779.83	10.312
780.01	10.329
780.19	10.292
780.37	10.264
780.55	10.284
780.72	10.279
780.90	10.250
781.08	10.240
781.26	10.248
781.44	10.270
781.61	10.233
781.79	10.275
781.97	10.222
782.15	10.223
782.33	10.220
782.50	10.201
782.68	10.220
782.86	10.249
783.04	10.177
783.22	10.226
783.39	10.297
783.57	10.312
783.75	10.248
783.93	10.363
784.11	10.423
784.28	10.288
784.46	10.282
784.64	10.262
784.82	10.236
784.99	10.156
785.17	10.079
785.35	10.052
785.53	10.043
785.71	10.084
785.88	9.964
786.06	9.973
786.24	10.177
786.42	10.238
786.59	10.240
786.77	10.306
786.95	10.385
787.13	10.463
787.30	10.507
787.48	10.488
787.66	10.497
787.84	10.536
788.01	10.511
788.19	10.549
788.37	10.523
788.55	10.500
788.72	10.555
788.90	10.517
789.08	10.603
789.26	10.545
789.43	10.627
789.61	10.685
789.79	10.720
789.97	10.777
790.14	10.796
790.32	10.823
790.50	10.931
790.68	10.892
790.85	10.926
791.03	10.873
791.21	10.922
791.38	10.891
791.56	10.855
791.74	10.915
791.92	10.838
792.09	10.707
792.27	10.779
792.45	10.676
792.62	10.659
792.80	10.640
792.98	10.526
793.16	10.459
793.33	10.501
793.51	10.483
793.69	10.406
793.86	10.313
794.04	10.333
794.22	10.204
794.39	10.262
794.57	10.201
794.75	10.318
794.93	10.431
795.10	10.428
795.28	10.430
795.46	10.446
795.63	10.471
795.81	10.693
795.99	10.691
796.16	10.717
796.34	10.787
796.52	10.801
796.69	10.770
796.87	10.810
797.05	10.858
797.22	10.813
797.40	10.891
797.58	10.874
797.75	10.864
797.93	10.948
798.11	11.074
798.28	11.071
798.46	11.110
798.64	11.040
798.81	10.959
798.99	10.951
799.17	10.989
799.34	10.914
799.52	10.913
799.70	10.813
799.87	10.822
800.05	10.653
800.22	10.556
800.40	10.540
800.58	10.560
800.75	10.633
800.93	10.719
801.11	10.735
801.28	10.854
801.46	10.803
801.63	10.894
801.81	10.929
801.99	11.096
802.16	11.103
802.34	11.197
802.52	11.292
802.69	11.230
802.87	11.151
803.04	11.111
803.22	11.037
803.40	11.021
803.57	11.055
803.75	11.078
803.93	10.957
804.10	10.994
804.28	10.910
804.45	10.826
804.63	10.832
804.81	10.891
804.98	10.909
805.16	10.838
805.33	11.043
805.51	11.055
805.68	11.061
805.86	11.143
806.04	11.072
806.21	11.186
806.39	11.358
806.56	11.389
806.74	11.364
806.92	11.391
807.09	11.434
807.27	11.324
807.44	11.261
807.62	11.210
807.79	11.226
807.97	11.305
808.15	11.221
808.32	11.084
808.50	11.089
808.67	11.092
808.85	11.095
809.02	11.073
809.20	11.071
809.38	11.130
809.55	11.161
809.73	11.109
809.90	11.079
810.08	11.045
810.25	11.006
810.43	11.055
810.60	11.131
810.78	11.182
810.95	11.191
811.13	11.273
811.31	11.123
811.48	11.169
811.66	11.140
811.83	11.250
812.01	11.285
812.18	11.383
812.36	11.423
812.53	11.298
812.71	11.187
812.88	11.156
813.06	11.120
813.23	11.259
813.41	11.263
813.58	11.302
813.76	11.197
813.93	11.151
814.11	11.094
814.28	11.070
814.46	11.215
814.63	11.285
814.81	11.450
814.98	11.448
815.16	11.430
815.33	11.325
815.51	11.262
815.68	11.376
815.86	11.503
816.03	11.520
816.21	11.503
816.38	11.413
816.56	11.316
816.73	11.150
816.91	11.094
817.08	11.106
817.26	11.157
817.43	11.249
817.61	11.211
817.78	11.217
817.96	11.259
818.13	11.275
818.31	11.287
818.48	11.444
818.66	11.652
818.83	11.706
819.01	11.549
819.18	11.616
819.36	11.657
819.53	11.639
819.70	11.644
819.88	11.726
820.05	11.798
820.23	11.957
820.40	12.034
820.58	12.047
820.75	12.117
820.93	12.241
821.10	12.245
821.28	12.337
821.45	12.383
821.62	12.484
821.80	12.519
821.97	12.639
822.15	12.681
822.32	12.778
822.50	13.020
822.67	13.338
822.84	13.601
823.02	13.759
823.19	13.799
823.37	13.817
823.54	13.781
823.72	13.745
823.89	13.681
824.06	13.660
824.24	13.630
824.41	13.574
824.59	13.508
824.76	13.444
824.94	13.366
825.11	13.299
825.28	13.232
825.46	13.164
825.63	13.118
825.81	13.078
825.98	13.009
826.15	12.945
826.33	12.903
826.50	12.838
826.68	12.788
826.85	12.759
827.02	12.709
827.20	12.723
827.37	12.798
827.54	12.881
827.72	13.053
827.89	13.219
828.07	13.355
828.24	13.440
828.41	13.525
828.59	13.541
828.76	13.524
828.94	13.536
829.11	13.499
829.28	13.479
829.46	13.408
829.63	13.321
829.80	13.210
829.98	13.107
830.15	12.994
830.32	12.855
830.50	12.756
830.67	12.734
830.85	12.632
831.02	12.588
831.19	12.465
831.37	12.370
831.54	12.299
831.71	12.267
831.89	12.270
832.06	12.246
832.23	12.298
832.41	12.214
832.58	12.133
832.75	12.287
832.93	12.244
833.10	12.286
833.27	12.427
833.45	12.552
833.62	12.570
833.79	12.581
833.97	12.766
834.14	12.848
834.31	13.118
834.49	13.297
834.66	13.372
834.83	13.515
835.01	13.544
835.18	13.544
835.35	13.560
835.52	13.592
835.70	13.566
835.87	13.554
836.04	13.513
836.22	13.439
836.39	13.364
836.56	13.249
836.74	13.159
836.91	13.116
837.08	13.057
837.25	12.964
837.43	12.880
837.60	12.846
837.77	12.696
837.95	12.672
838.12	12.577
838.29	12.517
838.46	12.560
838.64	12.429
838.81	12.253
838.98	12.173
839.16	12.085
839.33	12.017
839.50	11.980
839.67	12.172
839.85	12.047
840.02	12.112
840.19	11.981
840.36	12.017
840.54	12.153
840.71	12.321
840.88	12.497
841.06	12.636
841.23	12.745
841.40	12.836
841.57	12.733
841.75	12.864
841.92	12.829
842.09	12.860
842.26	12.821
842.44	12.772
842.61	12.763
842.78	12.720
842.95	12.794
843.12	12.680
843.30	12.490
843.47	12.484
843.64	12.325
843.81	12.346
843.99	12.325
844.16	12.326
844.33	12.297
844.50	12.329
844.68	12.246
844.85	11.876
845.02	11.924
845.19	11.925
845.36	11.691
845.54	11.711
845.71	11.751
845.88	11.834
846.05	11.677
846.22	11.595
846.40	11.639
846.57	11.716
846.74	11.919
846.91	11.903
847.08	12.344
847.26	12.382
847.43	12.524
847.60	12.507
847.77	12.390
847.94	12.390
848.12	12.670
848.29	12.580
848.46	12.634
848.63	12.419
848.80	12.628
848.98	12.474
849.15	12.577
849.32	12.496
849.49	12.234
849.66	12.428
849.83	12.372
850.01	12.134
850.18	12.053
850.35	11.950
850.52	12.154
850.69	11.694
850.86	11.655
851.04	11.628
851.21	11.856
851.38	11.929
851.55	11.698
851.72	11.711
851.89	11.902
852.06	11.838
852.24	11.781
852.41	11.733
852.58	11.933
852.75	11.905
852.92	11.963
853.09	11.761
853.26	11.884
853.44	12.022
853.61	12.254
853.78	12.220
853.95	12.513
854.12	12.380
854.29	12.624
854.46	12.589
854.64	12.529
854.81	12.810
854.98	12.747
855.15	12.782
855.32	12.816
855.49	12.623
855.66	12.394
855.83	12.434
856.00	12.839
856.18	12.754
856.35	12.570
856.52	12.461
856.69	12.150
856.86	12.092
857.03	12.109
857.20	12.314
857.37	12.652
857.54	12.929
857.71	12.762
857.89	12.585
858.06	12.275
858.23	12.352
858.40	12.404
858.57	12.561
858.74	12.803
858.91	12.921
859.08	12.787
859.25	12.489
859.42	12.327
859.59	12.412
859.76	12.245
859.94	12.686
860.11	12.725
860.28	12.837
860.45	12.758
860.62	12.668
860.79	12.512
860.96	12.616
861.13	12.766
861.30	12.812
861.47	12.575
861.64	12.868
861.81	12.469
861.98	12.670
862.15	12.550
862.32	12.654
862.49	12.405
862.66	12.512
862.83	12.562
863.01	12.814
863.18	12.726
863.35	12.784
863.52	13.046
863.69	12.861
863.86	12.696
864.03	12.711
864.20	12.941
864.37	13.088
864.54	13.322
864.71	13.523
864.88	13.354
865.05	13.538
865.22	13.348
865.39	13.155
865.56	13.598
865.73	13.798
865.90	13.963
866.07	13.640
866.24	13.883
866.41	13.628
866.58	13.125
866.75	12.974
866.92	12.902
867.09	12.983
867.26	12.896
867.43	12.762
867.60	12.691
867.77	12.679
867.94	12.707
868.11	12.506
868.28	12.765
868.45	13.100
868.62	13.042
868.79	12.968
868.96	13.189
869.13	13.107
869.30	12.998
869.47	12.908
869.64	12.844
869.81	12.971
869.98	12.910
870.15	12.725
870.32	12.491
870.49	12.345
870.66	12.285
870.83	12.080
871.00	12.043
871.16	12.160
871.33	12.459
871.50	12.134
871.67	12.071
871.84	11.858
872.01	11.793
872.18	11.841
872.35	12.407
872.52	12.650
872.69	12.605
872.86	12.758
873.03	12.805
873.20	12.809
873.37	12.971
873.54	13.158
873.71	13.479
873.88	13.439
874.05	13.465
874.21	13.163
874.38	12.900
874.55	13.086
874.72	12.886
874.89	12.695
875.06	12.371
875.23	12.605
875.40	12.285
875.57	12.416
875.74	12.519
875.91	12.568
876.08	12.629
876.24	12.789
876.41	12.666
876.58	12.840
876.75	13.186
876.92	13.322
877.09	13.427
877.26	13.602
877.43	13.444
877.60	13.472
877.77	13.569
877.93	13.743
878.10	13.516
878.27	13.716
878.44	13.649
878.61	13.690
878.78	13.737
878.95	13.528
879.12	13.579
879.28	13.813
879.45	13.789
879.62	13.623
879.79	13.163
879.96	13.664
880.13	13.650
880.30	13.847
880.47	13.788
880.63	13.901
880.80	14.009
880.97	13.936
881.14	13.996
881.31	14.077
881.48	14.368
881.65	14.801
881.81	14.972
881.98	15.363
882.15	15.679
882.32	16.004
882.49	16.238
882.66	16.378
882.82	16.465
882.99	16.484
883.16	16.508
883.33	16.488
883.50	16.460
883.67	16.452
883.83	16.420
884.00	16.352
884.17	16.275
884.34	16.187
884.51	16.108
884.68	16.032
884.84	15.961
885.01	15.878
885.18	15.816
885.35	15.740
885.52	15.613
885.68	15.465
885.85	15.380
886.02	15.487
886.19	14.879
886.36	14.735
886.53	14.402
886.69	14.789
>>>>>End Spectral Data<<<<<
