OOIBase32 Version 2.0.6.5 Data File
++++++++++++++++++++++++++++++++++++
Date: 03-24-2011, 10:56:04
User: Valued Ocean Optics Customer
Spectrometer Serial Number: USB4C01507
Spectrometer Channel: Master
Integration Time (msec): 46
Spectra Averaged: 30
Boxcar Smoothing: 5
Correct for Electrical Dark: Enabled
Time Normalized: Disabled
Dual-beam Reference: Disabled
Reference Channel: Master
Temperature: Not acquired
Spectrometer Type: S4000
ADC Type: USB4000
Number of Pixels in File: 3648
Graph Title: 
>>>>>Begin Spectral Data<<<<<
179.17	1161.608
179.39	3099.094
179.60	69.802
179.82	-119.618
180.03	218.042
180.24	450.579
180.46	72.980
180.67	-132.156
180.89	44.788
181.10	-191.142
181.31	59.824
181.53	-180.502
181.74	-7.830
181.96	18.967
182.17	-120.673
182.39	72.349
182.60	15.775
182.81	-4.369
183.03	29.883
183.24	-306.875
183.46	39.127
183.67	46.950
183.88	50.902
184.10	50.373
184.31	50.673
184.53	53.183
184.74	45.972
184.96	44.798
185.17	37.323
185.38	40.731
185.60	49.878
185.81	44.559
186.03	38.481
186.24	34.095
186.45	31.899
186.67	24.992
186.88	23.575
187.10	18.578
187.31	13.946
187.52	10.796
187.74	6.291
187.95	2.970
188.17	-6.891
188.38	-4.995
188.59	-3.164
188.81	-15.458
189.02	-6.512
189.24	-4.527
189.45	3.315
189.66	7.333
189.88	-0.915
190.09	1.891
190.30	5.407
190.52	15.607
190.73	15.421
190.95	12.798
191.16	14.495
191.37	12.157
191.59	8.549
191.80	10.460
192.02	9.161
192.23	20.455
192.44	8.167
192.66	3.284
192.87	-7.861
193.08	-5.797
193.30	-2.465
193.51	6.308
193.73	14.642
193.94	17.974
194.15	13.936
194.37	14.409
194.58	14.640
194.79	11.316
195.01	7.959
195.22	6.005
195.44	1.447
195.65	5.489
195.86	2.802
196.08	-3.111
196.29	-2.818
196.50	1.107
196.72	4.322
196.93	2.110
197.14	5.432
197.36	11.133
197.57	8.396
197.79	13.551
198.00	3.573
198.21	4.619
198.43	10.340
198.64	11.023
198.85	6.091
199.07	5.192
199.28	10.890
199.49	11.881
199.71	9.011
199.92	17.614
200.13	7.807
200.35	17.861
200.56	10.300
200.78	1.659
200.99	-4.404
201.20	-1.605
201.42	-1.136
201.63	-13.236
201.84	-15.288
202.06	-11.242
202.27	-15.104
202.48	-7.007
202.70	-14.207
202.91	-5.827
203.12	-7.998
203.34	-5.313
203.55	-0.951
203.76	-1.634
203.98	6.998
204.19	11.351
204.40	5.915
204.62	8.941
204.83	5.783
205.04	10.417
205.26	7.446
205.47	11.047
205.68	13.949
205.90	11.911
206.11	10.685
206.32	7.522
206.54	2.213
206.75	10.392
206.96	10.439
207.18	10.290
207.39	8.503
207.60	13.934
207.82	12.877
208.03	10.753
208.24	8.729
208.45	15.997
208.67	16.568
208.88	18.246
209.09	13.700
209.31	12.258
209.52	10.621
209.73	13.078
209.95	11.111
210.16	12.860
210.37	11.730
210.59	15.314
210.80	10.998
211.01	12.603
211.23	13.980
211.44	11.564
211.65	10.593
211.86	11.103
212.08	9.135
212.29	6.903
212.50	5.568
212.72	3.977
212.93	-1.026
213.14	1.429
213.36	-2.672
213.57	-1.954
213.78	2.894
213.99	8.678
214.21	10.925
214.42	10.522
214.63	9.527
214.85	7.624
215.06	10.750
215.27	12.842
215.49	9.673
215.70	10.113
215.91	7.473
216.12	5.701
216.34	3.941
216.55	3.445
216.76	3.758
216.98	1.370
217.19	4.887
217.40	5.511
217.61	7.328
217.83	8.526
218.04	10.459
218.25	9.777
218.47	10.733
218.68	9.012
218.89	8.502
219.10	7.042
219.32	5.864
219.53	5.374
219.74	5.403
219.95	3.896
220.17	4.292
220.38	4.271
220.59	4.799
220.81	3.979
221.02	4.780
221.23	4.772
221.44	4.952
221.66	7.292
221.87	6.779
222.08	6.977
222.29	6.670
222.51	7.523
222.72	5.867
222.93	7.285
223.14	7.764
223.36	7.051
223.57	7.443
223.78	7.909
223.99	8.477
224.21	8.862
224.42	7.154
224.63	6.955
224.84	5.493
225.06	6.338
225.27	5.270
225.48	5.303
225.69	5.849
225.91	5.457
226.12	4.852
226.33	5.259
226.54	4.949
226.76	5.308
226.97	5.334
227.18	5.370
227.39	5.221
227.61	5.472
227.82	5.422
228.03	5.365
228.24	5.356
228.46	5.516
228.67	5.394
228.88	5.408
229.09	5.334
229.31	5.397
229.52	5.420
229.73	5.686
229.94	5.528
230.16	5.565
230.37	5.549
230.58	5.409
230.79	5.459
231.00	5.759
231.22	5.895
231.43	6.080
231.64	6.270
231.85	6.195
232.07	5.706
232.28	5.592
232.49	5.532
232.70	5.331
232.91	5.578
233.13	5.530
233.34	5.184
233.55	5.154
233.76	5.084
233.98	5.178
234.19	5.186
234.40	5.117
234.61	5.284
234.82	5.280
235.04	5.146
235.25	5.391
235.46	5.106
235.67	4.715
235.88	4.843
236.10	5.025
236.31	4.586
236.52	4.919
236.73	5.546
236.94	5.584
237.16	5.167
237.37	5.620
237.58	5.156
237.79	5.117
238.01	5.138
238.22	4.864
238.43	4.897
238.64	5.102
238.85	4.716
239.06	4.360
239.28	4.187
239.49	4.570
239.70	4.414
239.91	4.447
240.12	4.597
240.34	4.690
240.55	4.827
240.76	4.796
240.97	4.655
241.18	4.740
241.40	4.597
241.61	4.529
241.82	4.433
242.03	4.607
242.24	4.409
242.45	4.357
242.67	4.335
242.88	4.332
243.09	4.182
243.30	4.117
243.51	4.187
243.73	4.283
243.94	4.414
244.15	4.292
244.36	3.993
244.57	4.545
244.78	4.397
245.00	4.222
245.21	3.975
245.42	4.102
245.63	4.157
245.84	4.110
246.05	4.055
246.27	4.052
246.48	4.091
246.69	4.032
246.90	3.950
247.11	3.931
247.32	3.998
247.54	4.073
247.75	3.974
247.96	3.929
248.17	3.946
248.38	4.022
248.59	3.971
248.81	3.929
249.02	4.027
249.23	3.914
249.44	3.958
249.65	3.979
249.86	3.782
250.07	4.171
250.29	4.163
250.50	3.734
250.71	3.696
250.92	3.688
251.13	3.706
251.34	3.827
251.55	3.852
251.77	3.922
251.98	3.893
252.19	4.006
252.40	3.834
252.61	3.866
252.82	3.959
253.03	3.903
253.25	3.904
253.46	3.933
253.67	3.861
253.88	3.841
254.09	3.793
254.30	3.735
254.51	3.604
254.73	3.564
254.94	3.672
255.15	3.888
255.36	3.837
255.57	3.666
255.78	3.649
255.99	3.628
256.20	3.974
256.42	3.901
256.63	3.714
256.84	3.719
257.05	3.668
257.26	3.576
257.47	3.418
257.68	3.329
257.89	3.434
258.10	3.444
258.32	3.370
258.53	3.284
258.74	3.246
258.95	3.301
259.16	3.299
259.37	3.304
259.58	3.232
259.79	3.318
260.00	3.352
260.22	3.310
260.43	3.336
260.64	3.351
260.85	3.410
261.06	3.526
261.27	3.510
261.48	3.566
261.69	3.603
261.90	3.720
262.12	3.455
262.33	3.577
262.54	3.733
262.75	3.646
262.96	3.540
263.17	3.424
263.38	3.372
263.59	3.482
263.80	3.395
264.01	3.356
264.22	3.287
264.44	3.412
264.65	3.216
264.86	3.287
265.07	3.240
265.28	3.316
265.49	3.264
265.70	3.185
265.91	3.095
266.12	3.124
266.33	3.128
266.54	3.147
266.75	3.127
266.97	3.197
267.18	3.171
267.39	3.060
267.60	3.024
267.81	3.002
268.02	3.028
268.23	3.112
268.44	3.086
268.65	3.027
268.86	3.103
269.07	3.168
269.28	3.010
269.49	2.930
269.70	3.051
269.92	3.020
270.13	3.002
270.34	3.059
270.55	2.929
270.76	2.880
270.97	3.023
271.18	3.062
271.39	3.004
271.60	3.117
271.81	3.233
272.02	3.206
272.23	3.278
272.44	3.351
272.65	3.309
272.86	3.373
273.07	3.424
273.28	3.384
273.49	3.322
273.71	3.349
273.92	3.375
274.13	3.129
274.34	3.109
274.55	3.100
274.76	2.948
274.97	3.009
275.18	2.833
275.39	2.841
275.60	2.816
275.81	2.878
276.02	2.894
276.23	2.848
276.44	3.026
276.65	3.074
276.86	3.047
277.07	3.117
277.28	3.040
277.49	3.196
277.70	3.097
277.91	3.173
278.12	2.997
278.33	2.949
278.54	2.990
278.75	2.907
278.96	2.828
279.17	2.796
279.39	2.770
279.60	2.754
279.81	2.659
280.02	2.649
280.23	2.561
280.44	2.613
280.65	2.613
280.86	2.506
281.07	2.515
281.28	2.602
281.49	2.492
281.70	2.544
281.91	2.506
282.12	2.682
282.33	2.716
282.54	2.774
282.75	2.862
282.96	3.014
283.17	3.097
283.38	3.136
283.59	3.087
283.80	3.136
284.01	3.008
284.22	2.989
284.43	2.885
284.64	2.840
284.85	2.828
285.06	2.799
285.27	2.666
285.48	2.658
285.69	2.591
285.90	2.646
286.11	2.694
286.32	2.739
286.53	2.741
286.74	2.782
286.95	2.859
287.16	2.837
287.37	2.709
287.58	2.719
287.79	2.633
288.00	2.682
288.21	2.583
288.42	2.490
288.63	2.614
288.84	2.676
289.05	2.659
289.26	2.654
289.47	2.665
289.68	2.708
289.89	2.775
290.10	2.826
290.31	2.831
290.51	2.841
290.72	2.897
290.93	2.859
291.14	2.830
291.35	2.821
291.56	2.830
291.77	2.771
291.98	2.764
292.19	2.750
292.40	2.743
292.61	2.702
292.82	2.699
293.03	2.754
293.24	2.662
293.45	2.632
293.66	2.613
293.87	2.608
294.08	2.556
294.29	2.707
294.50	2.622
294.71	2.629
294.92	2.663
295.13	2.752
295.34	2.676
295.55	2.728
295.76	2.652
295.96	2.638
296.17	2.638
296.38	2.718
296.59	2.613
296.80	2.664
297.01	2.677
297.22	2.659
297.43	2.635
297.64	2.663
297.85	2.643
298.06	2.680
298.27	2.688
298.48	2.641
298.69	2.620
298.90	2.659
299.11	2.642
299.32	2.596
299.53	2.589
299.73	2.596
299.94	2.623
300.15	2.625
300.36	2.706
300.57	2.727
300.78	2.728
300.99	2.741
301.20	2.734
301.41	2.729
301.62	2.792
301.83	2.772
302.04	2.744
302.25	2.655
302.45	2.631
302.66	2.551
302.87	2.507
303.08	2.489
303.29	2.449
303.50	2.434
303.71	2.454
303.92	2.386
304.13	2.388
304.34	2.346
304.55	2.358
304.76	2.377
304.96	2.353
305.17	2.334
305.38	2.373
305.59	2.369
305.80	2.382
306.01	2.386
306.22	2.387
306.43	2.435
306.64	2.408
306.85	2.396
307.06	2.393
307.26	2.448
307.47	2.424
307.68	2.487
307.89	2.529
308.10	2.474
308.31	2.443
308.52	2.413
308.73	2.395
308.94	2.470
309.14	2.493
309.35	2.509
309.56	2.513
309.77	2.502
309.98	2.496
310.19	2.484
310.40	2.510
310.61	2.478
310.82	2.515
311.02	2.512
311.23	2.469
311.44	2.436
311.65	2.384
311.86	2.366
312.07	2.364
312.28	2.274
312.49	2.229
312.69	2.228
312.90	2.242
313.11	2.190
313.32	2.151
313.53	2.175
313.74	2.134
313.95	2.100
314.16	2.029
314.36	2.092
314.57	2.196
314.78	2.192
314.99	2.229
315.20	2.215
315.41	2.274
315.62	2.246
315.82	2.239
316.03	2.236
316.24	2.351
316.45	2.417
316.66	2.393
316.87	2.354
317.08	2.379
317.28	2.344
317.49	2.327
317.70	2.282
317.91	2.336
318.12	2.297
318.33	2.355
318.54	2.298
318.74	2.276
318.95	2.289
319.16	2.263
319.37	2.240
319.58	2.233
319.79	2.203
319.99	2.199
320.20	2.178
320.41	2.172
320.62	2.191
320.83	2.130
321.04	2.114
321.24	2.099
321.45	2.129
321.66	2.147
321.87	2.157
322.08	2.180
322.29	2.210
322.49	2.211
322.70	2.204
322.91	2.190
323.12	2.285
323.33	2.284
323.54	2.259
323.74	2.216
323.95	2.177
324.16	2.146
324.37	2.142
324.58	2.108
324.79	2.087
324.99	2.068
325.20	2.084
325.41	2.031
325.62	2.082
325.83	2.103
326.03	2.069
326.24	2.083
326.45	2.116
326.66	2.086
326.87	2.119
327.07	2.137
327.28	2.169
327.49	2.177
327.70	2.224
327.91	2.216
328.11	2.158
328.32	2.219
328.53	2.298
328.74	2.263
328.95	2.267
329.15	2.266
329.36	2.270
329.57	2.245
329.78	2.256
329.99	2.203
330.19	2.139
330.40	2.212
330.61	2.229
330.82	2.088
331.03	2.081
331.23	2.160
331.44	2.138
331.65	2.131
331.86	2.205
332.07	2.152
332.27	2.197
332.48	2.215
332.69	2.217
332.90	2.198
333.10	2.301
333.31	2.305
333.52	2.225
333.73	2.209
333.94	2.220
334.14	2.175
334.35	2.175
334.56	2.139
334.77	2.129
334.97	2.081
335.18	2.002
335.39	1.992
335.60	2.006
335.80	2.006
336.01	2.011
336.22	1.918
336.43	1.909
336.64	1.892
336.84	1.906
337.05	1.883
337.26	1.879
337.47	1.879
337.67	1.876
337.88	1.799
338.09	1.831
338.30	1.859
338.50	1.950
338.71	1.963
338.92	1.974
339.13	1.968
339.33	1.992
339.54	1.955
339.75	2.007
339.96	1.985
340.16	2.026
340.37	2.070
340.58	2.034
340.79	2.022
340.99	2.004
341.20	1.976
341.41	1.935
341.62	1.922
341.82	1.998
342.03	1.948
342.24	1.907
342.44	1.972
342.65	1.912
342.86	1.927
343.07	1.898
343.27	1.912
343.48	1.906
343.69	1.932
343.90	1.950
344.10	1.902
344.31	1.922
344.52	2.010
344.72	1.934
344.93	1.915
345.14	1.904
345.35	1.898
345.55	1.903
345.76	1.927
345.97	1.929
346.18	1.911
346.38	1.920
346.59	1.918
346.80	1.854
347.00	1.876
347.21	1.900
347.42	1.943
347.62	1.965
347.83	1.911
348.04	1.908
348.25	1.866
348.45	1.907
348.66	1.923
348.87	1.941
349.07	1.939
349.28	1.913
349.49	1.861
349.70	1.835
349.90	1.777
350.11	1.796
350.32	1.761
350.52	1.805
350.73	1.765
350.94	1.774
351.14	1.766
351.35	1.777
351.56	1.776
351.76	1.842
351.97	1.815
352.18	1.868
352.39	1.874
352.59	1.916
352.80	1.887
353.01	1.912
353.21	1.873
353.42	1.861
353.63	1.849
353.83	1.856
354.04	1.829
354.25	1.875
354.45	1.857
354.66	1.853
354.87	1.817
355.07	1.832
355.28	1.791
355.49	1.837
355.69	1.849
355.90	1.887
356.11	1.915
356.31	1.951
356.52	1.904
356.73	1.919
356.93	1.919
357.14	1.931
357.35	1.944
357.55	2.001
357.76	1.937
357.97	1.899
358.17	1.889
358.38	1.866
358.59	1.851
358.79	1.859
359.00	1.847
359.21	1.874
359.41	1.869
359.62	1.854
359.83	1.814
360.03	1.838
360.24	1.898
360.44	1.877
360.65	1.884
360.86	1.873
361.06	1.861
361.27	1.865
361.48	1.846
361.68	1.884
361.89	1.893
362.10	1.894
362.30	1.903
362.51	1.862
362.72	1.851
362.92	1.871
363.13	1.821
363.33	1.823
363.54	1.834
363.75	1.833
363.95	1.790
364.16	1.790
364.37	1.826
364.57	1.797
364.78	1.806
364.98	1.803
365.19	1.759
365.40	1.795
365.60	1.768
365.81	1.756
366.02	1.760
366.22	1.771
366.43	1.754
366.63	1.731
366.84	1.723
367.05	1.721
367.25	1.699
367.46	1.709
367.66	1.740
367.87	1.789
368.08	1.802
368.28	1.827
368.49	1.823
368.69	1.807
368.90	1.813
369.11	1.845
369.31	1.853
369.52	1.891
369.72	1.892
369.93	1.865
370.14	1.864
370.34	1.844
370.55	1.784
370.75	1.811
370.96	1.804
371.17	1.803
371.37	1.781
371.58	1.792
371.78	1.785
371.99	1.808
372.20	1.811
372.40	1.774
372.61	1.769
372.81	1.818
373.02	1.813
373.23	1.822
373.43	1.809
373.64	1.824
373.84	1.807
374.05	1.845
374.25	1.819
374.46	1.776
374.67	1.784
374.87	1.792
375.08	1.743
375.28	1.722
375.49	1.718
375.69	1.728
375.90	1.725
376.11	1.714
376.31	1.687
376.52	1.709
376.72	1.733
376.93	1.751
377.13	1.755
377.34	1.778
377.55	1.780
377.75	1.783
377.96	1.759
378.16	1.768
378.37	1.795
378.57	1.784
378.78	1.779
378.98	1.787
379.19	1.800
379.40	1.765
379.60	1.736
379.81	1.724
380.01	1.716
380.22	1.694
380.42	1.669
380.63	1.660
380.83	1.639
381.04	1.627
381.24	1.625
381.45	1.622
381.66	1.657
381.86	1.666
382.07	1.661
382.27	1.687
382.48	1.706
382.68	1.702
382.89	1.688
383.09	1.707
383.30	1.696
383.50	1.699
383.71	1.670
383.91	1.668
384.12	1.676
384.32	1.681
384.53	1.661
384.73	1.672
384.94	1.682
385.15	1.698
385.35	1.692
385.56	1.700
385.76	1.686
385.97	1.704
386.17	1.706
386.38	1.723
386.58	1.725
386.79	1.773
386.99	1.758
387.20	1.763
387.40	1.732
387.61	1.740
387.81	1.725
388.02	1.732
388.22	1.704
388.43	1.694
388.63	1.674
388.84	1.687
389.04	1.662
389.25	1.691
389.45	1.681
389.66	1.705
389.86	1.709
390.07	1.723
390.27	1.725
390.48	1.736
390.68	1.736
390.89	1.741
391.09	1.736
391.30	1.719
391.50	1.713
391.71	1.725
391.91	1.707
392.12	1.715
392.32	1.718
392.53	1.726
392.73	1.719
392.94	1.725
393.14	1.733
393.35	1.736
393.55	1.741
393.75	1.728
393.96	1.729
394.16	1.737
394.37	1.708
394.57	1.721
394.78	1.713
394.98	1.702
395.19	1.692
395.39	1.681
395.60	1.677
395.80	1.684
396.01	1.693
396.21	1.697
396.42	1.693
396.62	1.710
396.83	1.679
397.03	1.703
397.23	1.728
397.44	1.736
397.64	1.755
397.85	1.756
398.05	1.747
398.26	1.741
398.46	1.725
398.67	1.740
398.87	1.724
399.08	1.732
399.28	1.696
399.48	1.686
399.69	1.682
399.89	1.678
400.10	1.669
400.30	1.659
400.51	1.669
400.71	1.683
400.92	1.661
401.12	1.675
401.32	1.657
401.53	1.658
401.73	1.650
401.94	1.663
402.14	1.657
402.35	1.692
402.55	1.699
402.75	1.677
402.96	1.660
403.16	1.677
403.37	1.671
403.57	1.681
403.78	1.699
403.98	1.711
404.18	1.710
404.39	1.693
404.59	1.684
404.80	1.690
405.00	1.688
405.21	1.708
405.41	1.708
405.61	1.713
405.82	1.732
406.02	1.739
406.23	1.729
406.43	1.720
406.63	1.741
406.84	1.743
407.04	1.742
407.25	1.769
407.45	1.775
407.65	1.775
407.86	1.761
408.06	1.738
408.27	1.731
408.47	1.750
408.67	1.745
408.88	1.740
409.08	1.718
409.29	1.727
409.49	1.720
409.69	1.705
409.90	1.727
410.10	1.732
410.31	1.746
410.51	1.766
410.71	1.747
410.92	1.729
411.12	1.720
411.33	1.730
411.53	1.728
411.73	1.692
411.94	1.693
412.14	1.669
412.34	1.688
412.55	1.692
412.75	1.655
412.96	1.673
413.16	1.685
413.36	1.684
413.57	1.684
413.77	1.679
413.97	1.733
414.18	1.747
414.38	1.741
414.59	1.734
414.79	1.713
414.99	1.719
415.20	1.721
415.40	1.744
415.60	1.742
415.81	1.726
416.01	1.721
416.21	1.699
416.42	1.694
416.62	1.707
416.83	1.696
417.03	1.712
417.23	1.703
417.44	1.689
417.64	1.672
417.84	1.680
418.05	1.679
418.25	1.676
418.45	1.673
418.66	1.670
418.86	1.652
419.06	1.674
419.27	1.660
419.47	1.671
419.67	1.678
419.88	1.681
420.08	1.672
420.28	1.669
420.49	1.666
420.69	1.651
420.89	1.635
421.10	1.637
421.30	1.628
421.50	1.627
421.71	1.623
421.91	1.624
422.11	1.624
422.32	1.637
422.52	1.641
422.72	1.660
422.93	1.683
423.13	1.702
423.33	1.713
423.54	1.714
423.74	1.713
423.94	1.723
424.15	1.719
424.35	1.720
424.55	1.712
424.76	1.726
424.96	1.722
425.16	1.718
425.36	1.712
425.57	1.702
425.77	1.698
425.97	1.712
426.18	1.712
426.38	1.714
426.58	1.717
426.79	1.718
426.99	1.702
427.19	1.704
427.39	1.713
427.60	1.733
427.80	1.751
428.00	1.765
428.21	1.772
428.41	1.760
428.61	1.762
428.82	1.759
429.02	1.765
429.22	1.786
429.42	1.756
429.63	1.743
429.83	1.726
430.03	1.714
430.24	1.712
430.44	1.703
430.64	1.715
430.84	1.720
431.05	1.710
431.25	1.699
431.45	1.678
431.65	1.700
431.86	1.696
432.06	1.693
432.26	1.700
432.47	1.688
432.67	1.685
432.87	1.684
433.07	1.678
433.28	1.692
433.48	1.698
433.68	1.706
433.88	1.702
434.09	1.715
434.29	1.717
434.49	1.726
434.69	1.724
434.90	1.724
435.10	1.712
435.30	1.732
435.51	1.741
435.71	1.746
435.91	1.753
436.11	1.747
436.32	1.743
436.52	1.747
436.72	1.753
436.92	1.755
437.13	1.771
437.33	1.765
437.53	1.744
437.73	1.728
437.93	1.725
438.14	1.710
438.34	1.707
438.54	1.710
438.74	1.708
438.95	1.683
439.15	1.696
439.35	1.686
439.55	1.679
439.76	1.690
439.96	1.701
440.16	1.706
440.36	1.714
440.56	1.719
440.77	1.711
440.97	1.708
441.17	1.721
441.37	1.714
441.58	1.725
441.78	1.755
441.98	1.756
442.18	1.754
442.38	1.746
442.59	1.752
442.79	1.751
442.99	1.779
443.19	1.772
443.40	1.780
443.60	1.782
443.80	1.773
444.00	1.766
444.20	1.760
444.41	1.744
444.61	1.751
444.81	1.751
445.01	1.755
445.21	1.734
445.42	1.760
445.62	1.755
445.82	1.747
446.02	1.749
446.22	1.740
446.43	1.742
446.63	1.750
446.83	1.751
447.03	1.756
447.23	1.759
447.44	1.765
447.64	1.746
447.84	1.747
448.04	1.748
448.24	1.750
448.44	1.756
448.65	1.765
448.85	1.760
449.05	1.774
449.25	1.766
449.45	1.783
449.65	1.795
449.86	1.821
450.06	1.831
450.26	1.853
450.46	1.859
450.66	1.862
450.87	1.854
451.07	1.871
451.27	1.840
451.47	1.843
451.67	1.835
451.87	1.831
452.08	1.815
452.28	1.796
452.48	1.789
452.68	1.787
452.88	1.787
453.08	1.786
453.28	1.784
453.49	1.803
453.69	1.814
453.89	1.810
454.09	1.813
454.29	1.821
454.49	1.849
454.70	1.847
454.90	1.846
455.10	1.851
455.30	1.839
455.50	1.850
455.70	1.857
455.90	1.848
456.11	1.846
456.31	1.832
456.51	1.825
456.71	1.815
456.91	1.828
457.11	1.828
457.31	1.814
457.51	1.829
457.72	1.805
457.92	1.797
458.12	1.790
458.32	1.788
458.52	1.792
458.72	1.797
458.92	1.781
459.12	1.781
459.33	1.767
459.53	1.785
459.73	1.801
459.93	1.805
460.13	1.808
460.33	1.818
460.53	1.816
460.73	1.814
460.93	1.818
461.14	1.837
461.34	1.831
461.54	1.850
461.74	1.845
461.94	1.838
462.14	1.844
462.34	1.843
462.54	1.843
462.74	1.850
462.95	1.858
463.15	1.859
463.35	1.847
463.55	1.849
463.75	1.847
463.95	1.840
464.15	1.843
464.35	1.855
464.55	1.848
464.75	1.852
464.95	1.862
465.16	1.860
465.36	1.846
465.56	1.840
465.76	1.855
465.96	1.861
466.16	1.877
466.36	1.866
466.56	1.860
466.76	1.861
466.96	1.859
467.16	1.858
467.36	1.857
467.57	1.869
467.77	1.880
467.97	1.874
468.17	1.876
468.37	1.853
468.57	1.868
468.77	1.867
468.97	1.861
469.17	1.860
469.37	1.857
469.57	1.859
469.77	1.867
469.97	1.865
470.17	1.859
470.37	1.850
470.57	1.860
470.78	1.844
470.98	1.852
471.18	1.864
471.38	1.864
471.58	1.879
471.78	1.884
471.98	1.873
472.18	1.882
472.38	1.892
472.58	1.902
472.78	1.914
472.98	1.929
473.18	1.933
473.38	1.936
473.58	1.952
473.78	1.938
473.98	1.943
474.18	1.965
474.38	1.954
474.58	1.949
474.78	1.961
474.98	1.964
475.18	1.975
475.38	1.979
475.58	1.985
475.79	1.967
475.99	1.970
476.19	1.974
476.39	1.960
476.59	1.967
476.79	1.982
476.99	1.972
477.19	1.974
477.39	1.946
477.59	1.941
477.79	1.935
477.99	1.940
478.19	1.941
478.39	1.948
478.59	1.952
478.79	1.958
478.99	1.950
479.19	1.957
479.39	1.942
479.59	1.962
479.79	1.964
479.99	1.976
480.19	1.973
480.39	1.974
480.59	1.971
480.79	1.974
480.99	1.972
481.19	1.976
481.39	1.967
481.59	1.979
481.79	1.985
481.99	1.990
482.19	1.986
482.39	1.996
482.59	2.003
482.79	1.999
482.99	1.996
483.19	2.009
483.39	2.038
483.59	2.062
483.79	2.063
483.99	2.059
484.19	2.047
484.39	2.045
484.58	2.046
484.78	2.046
484.98	2.051
485.18	2.058
485.38	2.057
485.58	2.038
485.78	2.013
485.98	2.010
486.18	2.013
486.38	2.025
486.58	2.032
486.78	2.030
486.98	2.038
487.18	2.040
487.38	2.045
487.58	2.045
487.78	2.046
487.98	2.049
488.18	2.050
488.38	2.053
488.58	2.058
488.78	2.064
488.98	2.075
489.18	2.075
489.37	2.077
489.57	2.079
489.77	2.086
489.97	2.096
490.17	2.107
490.37	2.113
490.57	2.112
490.77	2.116
490.97	2.111
491.17	2.109
491.37	2.107
491.57	2.117
491.77	2.116
491.97	2.116
492.17	2.115
492.37	2.118
492.56	2.121
492.76	2.125
492.96	2.130
493.16	2.141
493.36	2.147
493.56	2.153
493.76	2.150
493.96	2.162
494.16	2.171
494.36	2.178
494.56	2.182
494.76	2.182
494.95	2.195
495.15	2.196
495.35	2.189
495.55	2.191
495.75	2.194
495.95	2.195
496.15	2.201
496.35	2.203
496.55	2.212
496.75	2.217
496.95	2.227
497.14	2.223
497.34	2.228
497.54	2.232
497.74	2.238
497.94	2.246
498.14	2.253
498.34	2.246
498.54	2.252
498.74	2.245
498.93	2.247
499.13	2.248
499.33	2.259
499.53	2.266
499.73	2.279
499.93	2.289
500.13	2.302
500.33	2.301
500.53	2.313
500.72	2.314
500.92	2.321
501.12	2.329
501.32	2.334
501.52	2.329
501.72	2.322
501.92	2.316
502.12	2.306
502.31	2.300
502.51	2.304
502.71	2.305
502.91	2.305
503.11	2.313
503.31	2.321
503.51	2.322
503.70	2.327
503.90	2.346
504.10	2.361
504.30	2.369
504.50	2.365
504.70	2.373
504.90	2.379
505.09	2.397
505.29	2.395
505.49	2.387
505.69	2.395
505.89	2.411
506.09	2.405
506.29	2.407
506.48	2.411
506.68	2.423
506.88	2.434
507.08	2.432
507.28	2.438
507.48	2.450
507.67	2.458
507.87	2.458
508.07	2.469
508.27	2.477
508.47	2.479
508.67	2.484
508.86	2.492
509.06	2.484
509.26	2.487
509.46	2.481
509.66	2.478
509.85	2.487
510.05	2.500
510.25	2.490
510.45	2.498
510.65	2.502
510.85	2.493
511.04	2.500
511.24	2.518
511.44	2.524
511.64	2.527
511.84	2.544
512.03	2.545
512.23	2.552
512.43	2.556
512.63	2.555
512.83	2.571
513.02	2.586
513.22	2.582
513.42	2.584
513.62	2.594
513.82	2.603
514.01	2.606
514.21	2.610
514.41	2.613
514.61	2.615
514.81	2.617
515.00	2.604
515.20	2.610
515.40	2.626
515.60	2.625
515.80	2.631
515.99	2.630
516.19	2.627
516.39	2.640
516.59	2.647
516.78	2.659
516.98	2.669
517.18	2.672
517.38	2.677
517.58	2.668
517.77	2.679
517.97	2.681
518.17	2.689
518.37	2.698
518.56	2.703
518.76	2.700
518.96	2.705
519.16	2.705
519.36	2.716
519.55	2.723
519.75	2.731
519.95	2.741
520.15	2.755
520.34	2.766
520.54	2.771
520.74	2.771
520.94	2.783
521.13	2.797
521.33	2.800
521.53	2.800
521.73	2.812
521.92	2.823
522.12	2.835
522.32	2.838
522.52	2.850
522.71	2.865
522.91	2.878
523.11	2.889
523.31	2.884
523.50	2.890
523.70	2.909
523.90	2.914
524.09	2.918
524.29	2.912
524.49	2.923
524.69	2.928
524.88	2.933
525.08	2.937
525.28	2.934
525.48	2.940
525.67	2.953
525.87	2.958
526.07	2.953
526.26	2.956
526.46	2.966
526.66	2.972
526.86	2.970
527.05	2.968
527.25	2.975
527.45	2.984
527.64	2.987
527.84	2.993
528.04	2.995
528.24	3.006
528.43	3.016
528.63	3.023
528.83	3.023
529.02	3.026
529.22	3.028
529.42	3.026
529.62	3.031
529.81	3.037
530.01	3.040
530.21	3.044
530.40	3.046
530.60	3.045
530.80	3.047
530.99	3.053
531.19	3.063
531.39	3.074
531.58	3.087
531.78	3.095
531.98	3.103
532.18	3.115
532.37	3.126
532.57	3.134
532.77	3.149
532.96	3.152
533.16	3.160
533.36	3.172
533.55	3.180
533.75	3.182
533.95	3.191
534.14	3.192
534.34	3.204
534.54	3.208
534.73	3.226
534.93	3.233
535.13	3.248
535.32	3.250
535.52	3.249
535.72	3.261
535.91	3.278
536.11	3.273
536.31	3.290
536.50	3.297
536.70	3.307
536.90	3.311
537.09	3.312
537.29	3.313
537.48	3.328
537.68	3.340
537.88	3.339
538.07	3.338
538.27	3.360
538.47	3.374
538.66	3.380
538.86	3.391
539.06	3.395
539.25	3.415
539.45	3.424
539.65	3.434
539.84	3.450
540.04	3.463
540.23	3.479
540.43	3.484
540.63	3.476
540.82	3.477
541.02	3.483
541.22	3.485
541.41	3.489
541.61	3.486
541.80	3.487
542.00	3.482
542.20	3.483
542.39	3.489
542.59	3.487
542.79	3.499
542.98	3.501
543.18	3.503
543.37	3.512
543.57	3.511
543.77	3.526
543.96	3.525
544.16	3.540
544.35	3.556
544.55	3.563
544.75	3.579
544.94	3.579
545.14	3.601
545.33	3.622
545.53	3.625
545.73	3.637
545.92	3.645
546.12	3.665
546.31	3.668
546.51	3.668
546.71	3.673
546.90	3.680
547.10	3.697
547.29	3.695
547.49	3.699
547.69	3.715
547.88	3.735
548.08	3.752
548.27	3.757
548.47	3.769
548.66	3.779
548.86	3.784
549.06	3.791
549.25	3.800
549.45	3.825
549.64	3.824
549.84	3.830
550.03	3.837
550.23	3.847
550.43	3.856
550.62	3.869
550.82	3.883
551.01	3.896
551.21	3.913
551.40	3.930
551.60	3.941
551.80	3.964
551.99	3.981
552.19	3.981
552.38	3.977
552.58	3.982
552.77	3.992
552.97	4.009
553.16	4.015
553.36	4.020
553.56	4.024
553.75	4.019
553.95	4.019
554.14	4.010
554.34	4.020
554.53	4.033
554.73	4.060
554.92	4.073
555.12	4.081
555.31	4.094
555.51	4.111
555.70	4.112
555.90	4.125
556.10	4.134
556.29	4.142
556.49	4.154
556.68	4.180
556.88	4.178
557.07	4.179
557.27	4.181
557.46	4.190
557.66	4.199
557.85	4.205
558.05	4.220
558.24	4.234
558.44	4.254
558.63	4.271
558.83	4.259
559.02	4.278
559.22	4.290
559.41	4.303
559.61	4.308
559.80	4.321
560.00	4.343
560.19	4.349
560.39	4.356
560.58	4.382
560.78	4.385
560.97	4.399
561.17	4.403
561.36	4.411
561.56	4.410
561.75	4.420
561.95	4.431
562.14	4.428
562.34	4.431
562.53	4.437
562.73	4.439
562.92	4.445
563.12	4.460
563.31	4.460
563.51	4.473
563.70	4.485
563.90	4.504
564.09	4.503
564.29	4.523
564.48	4.526
564.68	4.550
564.87	4.568
565.07	4.569
565.26	4.576
565.45	4.580
565.65	4.587
565.84	4.606
566.04	4.603
566.23	4.609
566.43	4.617
566.62	4.625
566.82	4.627
567.01	4.621
567.21	4.633
567.40	4.630
567.60	4.657
567.79	4.648
567.98	4.650
568.18	4.666
568.37	4.680
568.57	4.685
568.76	4.708
568.96	4.710
569.15	4.732
569.35	4.749
569.54	4.767
569.73	4.756
569.93	4.787
570.12	4.799
570.32	4.802
570.51	4.812
570.71	4.825
570.90	4.836
571.09	4.866
571.29	4.872
571.48	4.887
571.68	4.901
571.87	4.915
572.07	4.928
572.26	4.940
572.45	4.957
572.65	4.967
572.84	4.969
573.04	4.978
573.23	4.970
573.43	4.977
573.62	4.991
573.81	5.000
574.01	5.013
574.20	5.018
574.40	5.025
574.59	5.035
574.78	5.045
574.98	5.060
575.17	5.069
575.37	5.082
575.56	5.087
575.75	5.084
575.95	5.100
576.14	5.106
576.34	5.097
576.53	5.107
576.72	5.104
576.92	5.114
577.11	5.121
577.31	5.134
577.50	5.135
577.69	5.149
577.89	5.164
578.08	5.155
578.28	5.169
578.47	5.185
578.66	5.199
578.86	5.230
579.05	5.240
579.24	5.252
579.44	5.246
579.63	5.256
579.83	5.257
580.02	5.262
580.21	5.282
580.41	5.294
580.60	5.327
580.79	5.335
580.99	5.333
581.18	5.343
581.38	5.357
581.57	5.391
581.76	5.414
581.96	5.438
582.15	5.447
582.34	5.464
582.54	5.467
582.73	5.483
582.92	5.492
583.12	5.499
583.31	5.510
583.50	5.506
583.70	5.493
583.89	5.492
584.08	5.497
584.28	5.519
584.47	5.510
584.66	5.524
584.86	5.506
585.05	5.516
585.24	5.525
585.44	5.538
585.63	5.552
585.82	5.586
586.02	5.593
586.21	5.623
586.40	5.613
586.60	5.637
586.79	5.661
586.98	5.672
587.18	5.691
587.37	5.721
587.56	5.729
587.76	5.754
587.95	5.747
588.14	5.783
588.34	5.767
588.53	5.794
588.72	5.802
588.92	5.802
589.11	5.827
589.30	5.831
589.50	5.831
589.69	5.837
589.88	5.831
590.07	5.834
590.27	5.829
590.46	5.838
590.65	5.847
590.85	5.862
591.04	5.869
591.23	5.887
591.43	5.896
591.62	5.905
591.81	5.913
592.00	5.933
592.20	5.958
592.39	5.967
592.58	5.994
592.78	6.002
592.97	6.002
593.16	6.008
593.35	6.004
593.55	6.015
593.74	6.021
593.93	6.040
594.13	6.058
594.32	6.073
594.51	6.090
594.70	6.096
594.90	6.087
595.09	6.095
595.28	6.115
595.47	6.135
595.67	6.148
595.86	6.155
596.05	6.171
596.24	6.170
596.44	6.172
596.63	6.172
596.82	6.172
597.02	6.189
597.21	6.202
597.40	6.209
597.59	6.201
597.79	6.193
597.98	6.207
598.17	6.209
598.36	6.217
598.56	6.224
598.75	6.232
598.94	6.253
599.13	6.267
599.32	6.290
599.52	6.293
599.71	6.321
599.90	6.343
600.09	6.355
600.29	6.369
600.48	6.385
600.67	6.406
600.86	6.426
601.06	6.438
601.25	6.461
601.44	6.469
601.63	6.500
601.82	6.511
602.02	6.535
602.21	6.536
602.40	6.549
602.59	6.563
602.79	6.578
602.98	6.601
603.17	6.605
603.36	6.612
603.55	6.630
603.75	6.621
603.94	6.627
604.13	6.624
604.32	6.643
604.51	6.641
604.71	6.648
604.90	6.647
605.09	6.656
605.28	6.662
605.47	6.668
605.67	6.673
605.86	6.681
606.05	6.704
606.24	6.727
606.43	6.732
606.63	6.752
606.82	6.755
607.01	6.781
607.20	6.788
607.39	6.804
607.59	6.806
607.78	6.814
607.97	6.825
608.16	6.804
608.35	6.806
608.54	6.823
608.74	6.822
608.93	6.853
609.12	6.853
609.31	6.863
609.50	6.886
609.69	6.921
609.89	6.929
610.08	6.954
610.27	6.975
610.46	6.989
610.65	7.001
610.84	7.028
611.04	7.029
611.23	7.044
611.42	7.054
611.61	7.055
611.80	7.061
611.99	7.070
612.19	7.068
612.38	7.077
612.57	7.093
612.76	7.104
612.95	7.119
613.14	7.135
613.33	7.141
613.53	7.168
613.72	7.184
613.91	7.174
614.10	7.199
614.29	7.227
614.48	7.245
614.67	7.267
614.86	7.282
615.06	7.278
615.25	7.283
615.44	7.310
615.63	7.304
615.82	7.304
616.01	7.325
616.20	7.320
616.39	7.333
616.59	7.340
616.78	7.341
616.97	7.358
617.16	7.383
617.35	7.408
617.54	7.406
617.73	7.434
617.92	7.443
618.12	7.457
618.31	7.465
618.50	7.473
618.69	7.494
618.88	7.504
619.07	7.505
619.26	7.499
619.45	7.500
619.64	7.521
619.83	7.526
620.03	7.557
620.22	7.566
620.41	7.591
620.60	7.592
620.79	7.596
620.98	7.581
621.17	7.592
621.36	7.614
621.55	7.633
621.74	7.644
621.93	7.655
622.12	7.660
622.32	7.683
622.51	7.689
622.70	7.701
622.89	7.717
623.08	7.752
623.27	7.778
623.46	7.790
623.65	7.799
623.84	7.805
624.03	7.817
624.22	7.830
624.41	7.831
624.60	7.845
624.79	7.873
624.99	7.897
625.18	7.901
625.37	7.902
625.56	7.909
625.75	7.919
625.94	7.923
626.13	7.935
626.32	7.939
626.51	7.954
626.70	7.953
626.89	7.949
627.08	7.951
627.27	7.960
627.46	7.961
627.65	7.972
627.84	7.985
628.03	7.989
628.22	7.985
628.41	8.002
628.60	8.003
628.79	8.035
628.98	8.040
629.17	8.034
629.37	8.046
629.56	8.067
629.75	8.087
629.94	8.087
630.13	8.105
630.32	8.119
630.51	8.142
630.70	8.166
630.89	8.160
631.08	8.192
631.27	8.228
631.46	8.253
631.65	8.266
631.84	8.262
632.03	8.257
632.22	8.272
632.41	8.295
632.60	8.305
632.79	8.310
632.98	8.336
633.17	8.342
633.36	8.348
633.55	8.358
633.74	8.372
633.93	8.403
634.12	8.436
634.31	8.461
634.50	8.472
634.69	8.473
634.88	8.505
635.07	8.508
635.26	8.508
635.45	8.516
635.64	8.521
635.83	8.530
636.02	8.533
636.21	8.544
636.40	8.566
636.59	8.560
636.78	8.564
636.96	8.560
637.15	8.571
637.34	8.599
637.53	8.612
637.72	8.626
637.91	8.639
638.10	8.650
638.29	8.673
638.48	8.673
638.67	8.679
638.86	8.692
639.05	8.714
639.24	8.732
639.43	8.746
639.62	8.736
639.81	8.760
640.00	8.754
640.19	8.783
640.38	8.795
640.57	8.792
640.76	8.818
640.95	8.838
641.14	8.840
641.32	8.867
641.51	8.875
641.70	8.921
641.89	8.923
642.08	8.961
642.27	8.948
642.46	8.962
642.65	8.979
642.84	8.996
643.03	9.002
643.22	9.022
643.41	9.025
643.60	9.045
643.79	9.057
643.98	9.056
644.16	9.050
644.35	9.055
644.54	9.047
644.73	9.050
644.92	9.073
645.11	9.086
645.30	9.094
645.49	9.114
645.68	9.107
645.87	9.116
646.06	9.127
646.24	9.156
646.43	9.186
646.62	9.216
646.81	9.239
647.00	9.235
647.19	9.255
647.38	9.265
647.57	9.260
647.76	9.297
647.95	9.285
648.13	9.322
648.32	9.339
648.51	9.358
648.70	9.349
648.89	9.369
649.08	9.397
649.27	9.430
649.46	9.440
649.65	9.454
649.83	9.443
650.02	9.459
650.21	9.480
650.40	9.472
650.59	9.467
650.78	9.483
650.97	9.479
651.16	9.477
651.34	9.473
651.53	9.480
651.72	9.511
651.91	9.510
652.10	9.530
652.29	9.535
652.48	9.566
652.66	9.596
652.85	9.622
653.04	9.656
653.23	9.677
653.42	9.672
653.61	9.684
653.80	9.662
653.98	9.678
654.17	9.686
654.36	9.686
654.55	9.679
654.74	9.673
654.93	9.698
655.11	9.697
655.30	9.709
655.49	9.747
655.68	9.763
655.87	9.790
656.06	9.823
656.24	9.843
656.43	9.855
656.62	9.884
656.81	9.893
657.00	9.894
657.19	9.910
657.37	9.907
657.56	9.919
657.75	9.873
657.94	9.900
658.13	9.901
658.31	9.930
658.50	9.946
658.69	9.958
658.88	9.969
659.07	9.986
659.26	9.991
659.44	10.012
659.63	10.014
659.82	10.083
660.01	10.094
660.20	10.096
660.38	10.094
660.57	10.105
660.76	10.101
660.95	10.132
661.14	10.125
661.32	10.141
661.51	10.150
661.70	10.155
661.89	10.165
662.08	10.174
662.26	10.210
662.45	10.215
662.64	10.227
662.83	10.256
663.01	10.247
663.20	10.284
663.39	10.309
663.58	10.318
663.77	10.324
663.95	10.343
664.14	10.340
664.33	10.357
664.52	10.361
664.70	10.386
664.89	10.417
665.08	10.452
665.27	10.449
665.45	10.450
665.64	10.465
665.83	10.499
666.02	10.521
666.20	10.534
666.39	10.527
666.58	10.552
666.77	10.541
666.95	10.504
667.14	10.507
667.33	10.532
667.52	10.564
667.70	10.581
667.89	10.571
668.08	10.567
668.27	10.588
668.45	10.605
668.64	10.630
668.83	10.640
669.02	10.674
669.20	10.678
669.39	10.680
669.58	10.680
669.77	10.683
669.95	10.683
670.14	10.674
670.33	10.687
670.51	10.731
670.70	10.735
670.89	10.761
671.08	10.796
671.26	10.842
671.45	10.859
671.64	10.844
671.82	10.892
672.01	10.937
672.20	10.938
672.39	10.955
672.57	10.941
672.76	10.949
672.95	10.965
673.13	10.970
673.32	10.951
673.51	10.954
673.70	10.964
673.88	10.956
674.07	10.972
674.26	10.995
674.44	11.007
674.63	11.010
674.82	11.016
675.00	11.010
675.19	11.002
675.38	11.028
675.56	11.046
675.75	11.093
675.94	11.105
676.12	11.100
676.31	11.139
676.50	11.141
676.69	11.197
676.87	11.233
677.06	11.235
677.25	11.264
677.43	11.277
677.62	11.282
677.81	11.321
677.99	11.359
678.18	11.363
678.37	11.363
678.55	11.376
678.74	11.335
678.93	11.346
679.11	11.352
679.30	11.364
679.48	11.381
679.67	11.391
679.86	11.366
680.04	11.364
680.23	11.371
680.42	11.392
680.60	11.407
680.79	11.441
680.98	11.454
681.16	11.470
681.35	11.486
681.54	11.461
681.72	11.484
681.91	11.495
682.10	11.500
682.28	11.538
682.47	11.540
682.65	11.545
682.84	11.561
683.03	11.562
683.21	11.583
683.40	11.582
683.59	11.618
683.77	11.616
683.96	11.651
684.14	11.647
684.33	11.627
684.52	11.667
684.70	11.688
684.89	11.695
685.07	11.701
685.26	11.728
685.45	11.740
685.63	11.746
685.82	11.799
686.00	11.804
686.19	11.859
686.38	11.893
686.56	11.894
686.75	11.918
686.93	11.900
687.12	11.922
687.31	11.954
687.49	11.961
687.68	11.979
687.86	11.976
688.05	11.955
688.24	11.964
688.42	11.975
688.61	11.964
688.79	11.958
688.98	11.985
689.17	11.987
689.35	11.984
689.54	11.985
689.72	12.001
689.91	11.996
690.09	12.036
690.28	12.024
690.47	12.011
690.65	12.022
690.84	12.034
691.02	12.045
691.21	12.049
691.39	12.035
691.58	12.077
691.76	12.088
691.95	12.088
692.14	12.085
692.32	12.098
692.51	12.126
692.69	12.167
692.88	12.187
693.06	12.196
693.25	12.230
693.43	12.244
693.62	12.261
693.81	12.284
693.99	12.307
694.18	12.341
694.36	12.342
694.55	12.382
694.73	12.377
694.92	12.383
695.10	12.380
695.29	12.380
695.47	12.386
695.66	12.406
695.84	12.423
696.03	12.442
696.21	12.433
696.40	12.470
696.59	12.502
696.77	12.541
696.96	12.531
697.14	12.554
697.33	12.612
697.51	12.668
697.70	12.657
697.88	12.669
698.07	12.675
698.25	12.681
698.44	12.688
698.62	12.657
698.81	12.648
698.99	12.684
699.18	12.717
699.36	12.712
699.55	12.711
699.73	12.712
699.92	12.693
700.10	12.695
700.29	12.727
700.47	12.705
700.66	12.726
700.84	12.737
701.03	12.736
701.21	12.727
701.40	12.722
701.58	12.759
701.77	12.793
701.95	12.844
702.13	12.859
702.32	12.883
702.50	12.929
702.69	12.938
702.87	12.935
703.06	12.976
703.24	13.013
703.43	13.021
703.61	12.999
703.80	13.003
703.98	12.972
704.17	12.991
704.35	12.968
704.54	12.994
704.72	13.014
704.90	13.041
705.09	13.032
705.27	13.056
705.46	13.088
705.64	13.081
705.83	13.052
706.01	13.079
706.20	13.113
706.38	13.122
706.56	13.120
706.75	13.140
706.93	13.144
707.12	13.172
707.30	13.154
707.49	13.159
707.67	13.188
707.86	13.240
708.04	13.265
708.22	13.247
708.41	13.255
708.59	13.254
708.78	13.247
708.96	13.273
709.14	13.302
709.33	13.344
709.51	13.352
709.70	13.372
709.88	13.398
710.07	13.438
710.25	13.501
710.43	13.538
710.62	13.564
710.80	13.563
710.99	13.604
711.17	13.596
711.35	13.592
711.54	13.624
711.72	13.636
711.91	13.684
712.09	13.671
712.27	13.660
712.46	13.695
712.64	13.718
712.83	13.749
713.01	13.731
713.19	13.731
713.38	13.747
713.56	13.738
713.75	13.753
713.93	13.736
714.11	13.742
714.30	13.751
714.48	13.733
714.66	13.734
714.85	13.750
715.03	13.804
715.22	13.800
715.40	13.814
715.58	13.837
715.77	13.886
715.95	13.892
716.13	13.924
716.32	13.916
716.50	13.932
716.68	13.961
716.87	13.973
717.05	13.947
717.24	13.994
717.42	13.996
717.60	14.013
717.79	13.977
717.97	13.989
718.15	14.006
718.34	14.012
718.52	14.058
718.70	14.053
718.89	14.082
719.07	14.064
719.25	14.083
719.44	14.101
719.62	14.133
719.80	14.148
719.99	14.137
720.17	14.131
720.35	14.200
720.54	14.177
720.72	14.176
720.90	14.171
721.09	14.221
721.27	14.220
721.45	14.217
721.64	14.215
721.82	14.251
722.00	14.320
722.19	14.371
722.37	14.365
722.55	14.366
722.74	14.393
722.92	14.414
723.10	14.433
723.28	14.504
723.47	14.569
723.65	14.617
723.83	14.642
724.02	14.582
724.20	14.582
724.38	14.588
724.57	14.606
724.75	14.637
724.93	14.675
725.11	14.658
725.30	14.611
725.48	14.581
725.66	14.578
725.85	14.538
726.03	14.554
726.21	14.596
726.39	14.615
726.58	14.643
726.76	14.634
726.94	14.617
727.13	14.641
727.31	14.689
727.49	14.727
727.67	14.715
727.86	14.758
728.04	14.835
728.22	14.788
728.40	14.828
728.59	14.823
728.77	14.867
728.95	14.910
729.13	14.906
729.32	14.890
729.50	14.864
729.68	14.893
729.86	14.919
730.05	14.906
730.23	14.947
730.41	14.932
730.59	14.930
730.78	14.950
730.96	14.954
731.14	15.038
731.32	15.055
731.51	15.118
731.69	15.119
731.87	15.122
732.05	15.124
732.24	15.152
732.42	15.169
732.60	15.183
732.78	15.180
732.97	15.178
733.15	15.153
733.33	15.205
733.51	15.192
733.69	15.223
733.88	15.216
734.06	15.230
734.24	15.197
734.42	15.222
734.60	15.267
734.79	15.280
734.97	15.275
735.15	15.276
735.33	15.231
735.52	15.246
735.70	15.216
735.88	15.228
736.06	15.254
736.24	15.268
736.43	15.288
736.61	15.313
736.79	15.342
736.97	15.372
737.15	15.419
737.34	15.424
737.52	15.456
737.70	15.522
737.88	15.581
738.06	15.581
738.24	15.643
738.43	15.612
738.61	15.609
738.79	15.591
738.97	15.623
739.15	15.633
739.33	15.648
739.52	15.640
739.70	15.578
739.88	15.582
740.06	15.564
740.24	15.510
740.42	15.532
740.61	15.542
740.79	15.605
740.97	15.561
741.15	15.577
741.33	15.620
741.51	15.632
741.70	15.691
741.88	15.726
742.06	15.794
742.24	15.871
742.42	15.900
742.60	15.923
742.78	15.878
742.97	15.947
743.15	15.943
743.33	15.979
743.51	16.030
743.69	16.094
743.87	16.047
744.05	16.080
744.24	16.079
744.42	16.112
744.60	16.110
744.78	16.165
744.96	16.214
745.14	16.271
745.32	16.269
745.50	16.285
745.69	16.242
745.87	16.276
746.05	16.253
746.23	16.241
746.41	16.201
746.59	16.236
746.77	16.261
746.95	16.230
747.13	16.140
747.32	16.147
747.50	16.133
747.68	16.145
747.86	16.165
748.04	16.245
748.22	16.258
748.40	16.331
748.58	16.325
748.76	16.325
748.94	16.366
749.13	16.442
749.31	16.457
749.49	16.506
749.67	16.535
749.85	16.599
750.03	16.555
750.21	16.569
750.39	16.545
750.57	16.581
750.75	16.565
750.93	16.534
751.11	16.547
751.30	16.587
751.48	16.557
751.66	16.620
751.84	16.592
752.02	16.621
752.20	16.656
752.38	16.695
752.56	16.704
752.74	16.713
752.92	16.718
753.10	16.776
753.28	16.768
753.46	16.789
753.64	16.747
753.82	16.747
754.00	16.710
754.18	16.789
754.37	16.786
754.55	16.807
754.73	16.805
754.91	16.853
755.09	16.835
755.27	16.834
755.45	16.836
755.63	16.817
755.81	16.839
755.99	16.888
756.17	16.820
756.35	16.830
756.53	16.799
756.71	16.831
756.89	16.837
757.07	16.855
757.25	16.873
757.43	16.915
757.61	16.945
757.79	16.944
757.97	16.945
758.15	17.021
758.33	17.074
758.51	17.141
758.69	17.165
758.87	17.188
759.05	17.200
759.23	17.191
759.41	17.223
759.59	17.275
759.77	17.305
759.95	17.324
760.13	17.298
760.31	17.319
760.49	17.335
760.67	17.389
760.85	17.417
761.03	17.454
761.21	17.533
761.39	17.499
761.57	17.504
761.75	17.560
761.93	17.569
762.11	17.612
762.29	17.602
762.47	17.612
762.65	17.594
762.83	17.569
763.01	17.561
763.19	17.582
763.37	17.637
763.55	17.659
763.73	17.670
763.91	17.705
764.09	17.658
764.27	17.693
764.45	17.676
764.63	17.698
764.81	17.709
764.99	17.706
765.16	17.692
765.34	17.678
765.52	17.678
765.70	17.641
765.88	17.642
766.06	17.654
766.24	17.628
766.42	17.639
766.60	17.641
766.78	17.665
766.96	17.688
767.14	17.671
767.32	17.674
767.50	17.667
767.68	17.710
767.86	17.669
768.03	17.713
768.21	17.740
768.39	17.737
768.57	17.711
768.75	17.718
768.93	17.755
769.11	17.816
769.29	17.858
769.47	17.856
769.65	17.872
769.83	17.895
770.01	17.964
770.19	18.000
770.36	18.027
770.54	18.096
770.72	18.131
770.90	18.092
771.08	18.123
771.26	18.096
771.44	18.168
771.62	18.163
771.80	18.235
771.98	18.216
772.15	18.217
772.33	18.258
772.51	18.252
772.69	18.188
772.87	18.237
773.05	18.161
773.23	18.294
773.41	18.297
773.58	18.294
773.76	18.326
773.94	18.336
774.12	18.301
774.30	18.333
774.48	18.330
774.66	18.383
774.84	18.359
775.01	18.489
775.19	18.480
775.37	18.533
775.55	18.573
775.73	18.620
775.91	18.633
776.09	18.738
776.26	18.738
776.44	18.747
776.62	18.747
776.80	18.763
776.98	18.744
777.16	18.703
777.34	18.705
777.51	18.768
777.69	18.735
777.87	18.731
778.05	18.677
778.23	18.690
778.41	18.720
778.58	18.737
778.76	18.782
778.94	18.765
779.12	18.846
779.30	18.849
779.48	18.791
779.65	18.818
779.83	18.826
780.01	18.863
780.19	18.899
780.37	18.921
780.55	18.963
780.72	19.011
780.90	19.039
781.08	19.013
781.26	19.113
781.44	19.143
781.61	19.142
781.79	19.150
781.97	19.136
782.15	19.116
782.33	19.078
782.50	19.066
782.68	19.032
782.86	18.973
783.04	18.977
783.22	18.912
783.39	18.945
783.57	18.928
783.75	18.910
783.93	18.992
784.11	19.008
784.28	18.925
784.46	18.942
784.64	18.981
784.82	19.063
784.99	19.002
785.17	18.987
785.35	19.065
785.53	19.121
785.71	19.237
785.88	19.153
786.06	19.223
786.24	19.356
786.42	19.391
786.59	19.353
786.77	19.438
786.95	19.493
787.13	19.527
787.30	19.487
787.48	19.476
787.66	19.466
787.84	19.529
788.01	19.542
788.19	19.679
788.37	19.769
788.55	19.862
788.72	19.824
788.90	19.822
789.08	19.899
789.26	19.882
789.43	19.904
789.61	19.895
789.79	19.939
789.97	19.951
790.14	19.896
790.32	19.847
790.50	19.840
790.68	19.839
790.85	19.847
791.03	19.821
791.21	19.873
791.38	19.870
791.56	19.830
791.74	19.805
791.92	19.764
792.09	19.768
792.27	19.810
792.45	19.775
792.62	19.697
792.80	19.707
792.98	19.596
793.16	19.525
793.33	19.566
793.51	19.616
793.69	19.554
793.86	19.510
794.04	19.478
794.22	19.471
794.39	19.524
794.57	19.643
794.75	19.702
794.93	19.830
795.10	19.872
795.28	19.863
795.46	19.827
795.63	19.920
795.81	20.043
795.99	20.013
796.16	20.094
796.34	20.147
796.52	20.084
796.69	20.169
796.87	20.227
797.05	20.360
797.22	20.370
797.40	20.518
797.58	20.493
797.75	20.469
797.93	20.568
798.11	20.581
798.28	20.556
798.46	20.577
798.64	20.503
798.81	20.439
798.99	20.369
799.17	20.387
799.34	20.240
799.52	20.315
799.70	20.327
799.87	20.391
800.05	20.291
800.22	20.281
800.40	20.338
800.58	20.339
800.75	20.337
800.93	20.335
801.11	20.334
801.28	20.506
801.46	20.367
801.63	20.472
801.81	20.441
801.99	20.589
802.16	20.594
802.34	20.670
802.52	20.642
802.69	20.771
802.87	20.764
803.04	20.778
803.22	20.752
803.40	20.882
803.57	20.723
803.75	20.709
803.93	20.619
804.10	20.708
804.28	20.709
804.45	20.791
804.63	20.741
804.81	20.755
804.98	20.844
805.16	20.793
805.33	20.752
805.51	20.899
805.68	20.935
805.86	21.031
806.04	20.979
806.21	20.987
806.39	21.048
806.56	21.041
806.74	21.130
806.92	21.118
807.09	21.055
807.27	21.155
807.44	21.081
807.62	21.192
807.79	21.247
807.97	21.287
808.15	21.272
808.32	21.196
808.50	21.086
808.67	21.091
808.85	21.087
809.02	21.241
809.20	21.120
809.38	21.152
809.55	20.975
809.73	20.882
809.90	20.849
810.08	20.826
810.25	20.902
810.43	20.953
810.60	20.931
810.78	20.951
810.95	20.849
811.13	21.023
811.31	20.959
811.48	21.080
811.66	21.123
811.83	21.153
812.01	21.164
812.18	21.115
812.36	21.178
812.53	21.120
812.71	21.137
812.88	21.244
813.06	21.234
813.23	21.266
813.41	21.360
813.58	21.461
813.76	21.506
813.93	21.589
814.11	21.591
814.28	21.621
814.46	21.738
814.63	21.739
814.81	21.757
814.98	21.700
815.16	21.793
815.33	21.621
815.51	21.621
815.68	21.643
815.86	21.625
816.03	21.695
816.21	21.722
816.38	21.559
816.56	21.604
816.73	21.645
816.91	21.730
817.08	21.753
817.26	21.869
817.43	21.776
817.61	21.722
817.78	21.729
817.96	21.665
818.13	21.705
818.31	21.876
818.48	21.904
818.66	21.920
818.83	21.895
819.01	21.800
819.18	21.895
819.36	21.901
819.53	21.948
819.70	21.974
819.88	22.245
820.05	22.291
820.23	22.340
820.40	22.482
820.58	22.501
820.75	22.543
820.93	22.567
821.10	22.553
821.28	22.722
821.45	22.739
821.62	22.800
821.80	22.739
821.97	22.748
822.15	22.753
822.32	22.774
822.50	22.908
822.67	23.139
822.84	23.238
823.02	23.190
823.19	23.068
823.37	22.910
823.54	22.745
823.72	22.589
823.89	22.464
824.06	22.388
824.24	22.308
824.41	22.233
824.59	22.136
824.76	22.055
824.94	21.963
825.11	21.870
825.28	21.828
825.46	21.804
825.63	21.827
825.81	21.867
825.98	21.888
826.15	21.941
826.33	21.978
826.50	22.004
826.68	22.043
826.85	22.116
827.02	22.168
827.20	22.265
827.37	22.400
827.54	22.576
827.72	22.751
827.89	22.900
828.07	22.985
828.24	23.019
828.41	23.011
828.59	22.963
828.76	22.911
828.94	22.892
829.11	22.823
829.28	22.762
829.46	22.670
829.63	22.570
829.80	22.510
829.98	22.417
830.15	22.345
830.32	22.317
830.50	22.288
830.67	22.324
830.85	22.363
831.02	22.455
831.19	22.510
831.37	22.556
831.54	22.618
831.71	22.614
831.89	22.690
832.06	22.760
832.23	22.878
832.41	22.957
832.58	23.027
832.75	23.114
832.93	23.026
833.10	23.103
833.27	23.197
833.45	23.383
833.62	23.436
833.79	23.579
833.97	23.678
834.14	23.772
834.31	23.854
834.49	23.946
834.66	23.914
834.83	23.992
835.01	23.912
835.18	23.793
835.35	23.698
835.52	23.586
835.70	23.452
835.87	23.384
836.04	23.279
836.22	23.205
836.39	23.081
836.56	22.986
836.74	22.861
836.91	22.807
837.08	22.798
837.25	22.780
837.43	22.835
837.60	22.912
837.77	22.901
837.95	22.950
838.12	22.993
838.29	23.008
838.46	23.086
838.64	23.181
838.81	23.135
838.98	23.203
839.16	23.277
839.33	23.361
839.50	23.345
839.67	23.573
839.85	23.530
840.02	23.478
840.19	23.522
840.36	23.887
840.54	24.003
840.71	24.261
840.88	24.350
841.06	24.267
841.23	24.295
841.40	24.401
841.57	24.197
841.75	24.187
841.92	24.106
842.09	24.068
842.26	23.852
842.44	23.756
842.61	23.669
842.78	23.647
842.95	23.731
843.12	23.591
843.30	23.429
843.47	23.498
843.64	23.560
843.81	23.885
843.99	23.914
844.16	24.082
844.33	24.106
844.50	24.147
844.68	24.151
844.85	23.895
845.02	24.140
845.19	24.201
845.36	24.185
845.54	24.265
845.71	24.136
845.88	24.166
846.05	24.005
846.22	24.088
846.40	24.255
846.57	24.318
846.74	24.490
846.91	24.212
847.08	24.134
847.26	24.266
847.43	24.214
847.60	24.326
847.77	24.550
847.94	24.585
848.12	24.707
848.29	24.555
848.46	24.261
848.63	24.619
848.80	24.984
848.98	25.177
849.15	24.911
849.32	24.849
849.49	24.419
849.66	24.284
849.83	24.345
850.01	24.440
850.18	24.374
850.35	24.511
850.52	24.036
850.69	23.698
850.86	23.786
851.04	23.722
851.21	23.849
851.38	23.897
851.55	23.951
851.72	23.670
851.89	23.698
852.06	23.857
852.24	23.686
852.41	24.126
852.58	24.062
852.75	24.136
852.92	24.407
853.09	24.401
853.26	24.679
853.44	24.585
853.61	24.792
853.78	24.498
853.95	24.442
854.12	24.569
854.29	24.539
854.46	24.986
854.64	24.809
854.81	24.951
854.98	24.746
855.15	24.691
855.32	24.933
855.49	24.964
855.66	24.987
855.83	24.909
856.00	24.937
856.18	24.932
856.35	24.524
856.52	24.745
856.69	24.721
856.86	25.087
857.03	25.096
857.20	25.183
857.37	25.451
857.54	25.715
857.71	25.891
857.89	25.799
858.06	25.764
858.23	25.723
858.40	25.579
858.57	25.657
858.74	25.223
858.91	25.122
859.08	25.032
859.25	25.018
859.42	24.942
859.59	24.919
859.76	25.206
859.94	25.179
860.11	25.305
860.28	25.571
860.45	25.588
860.62	25.850
860.79	25.808
860.96	25.768
861.13	25.255
861.30	25.107
861.47	25.131
861.64	25.178
861.81	25.147
861.98	25.118
862.15	25.043
862.32	24.876
862.49	24.924
862.66	25.351
862.83	25.238
863.01	25.727
863.18	25.772
863.35	25.779
863.52	25.644
863.69	25.505
863.86	25.650
864.03	25.519
864.20	25.773
864.37	25.763
864.54	25.614
864.71	26.099
864.88	26.046
865.05	26.036
865.22	26.079
865.39	26.333
865.56	26.459
865.73	26.518
865.90	26.525
866.07	26.697
866.24	26.594
866.41	26.711
866.58	26.421
866.75	26.262
866.92	26.289
867.09	26.385
867.26	26.154
867.43	26.013
867.60	25.920
867.77	25.991
867.94	25.851
868.11	26.117
868.28	26.318
868.45	26.415
868.62	26.613
868.79	26.960
868.96	26.990
869.13	26.885
869.30	27.114
869.47	27.084
869.64	27.160
869.81	27.034
869.98	26.748
870.15	26.467
870.32	26.025
870.49	25.531
870.66	25.421
870.83	25.191
871.00	25.698
871.16	25.589
871.33	25.674
871.50	25.521
871.67	25.876
871.84	25.907
872.01	25.714
872.18	26.127
872.35	26.807
872.52	26.559
872.69	26.371
872.86	26.188
873.03	26.256
873.20	26.314
873.37	26.261
873.54	26.065
873.71	25.973
873.88	26.060
874.05	26.052
874.21	26.016
874.38	26.034
874.55	26.286
874.72	26.083
874.89	25.658
875.06	25.667
875.23	25.980
875.40	25.895
875.57	26.129
875.74	26.175
875.91	26.275
876.08	26.299
876.24	26.337
876.41	26.399
876.58	26.557
876.75	26.823
876.92	26.843
877.09	26.462
877.26	26.757
877.43	26.782
877.60	26.963
877.77	26.765
877.93	26.615
878.10	26.765
878.27	26.669
878.44	26.727
878.61	26.832
878.78	26.770
878.95	26.946
879.12	26.717
879.28	26.832
879.45	26.653
879.62	26.788
879.79	26.486
879.96	26.490
880.13	26.546
880.30	26.590
880.47	26.639
880.63	26.725
880.80	26.840
880.97	26.973
881.14	26.916
881.31	27.159
881.48	27.347
881.65	27.777
881.81	28.004
881.98	28.154
882.15	28.274
882.32	28.395
882.49	28.279
882.66	28.203
882.82	28.010
882.99	27.847
883.16	27.691
883.33	27.534
883.50	27.382
883.67	27.258
883.83	27.153
884.00	27.051
884.17	26.895
884.34	26.811
884.51	26.675
884.68	26.593
884.84	26.508
885.01	26.463
885.18	26.446
885.35	26.424
885.52	26.417
885.68	26.386
885.85	26.305
886.02	26.594
886.19	26.126
886.36	26.894
886.53	26.470
886.69	26.030
>>>>>End Spectral Data<<<<<
