OOIBase32 Version 2.0.6.5 Data File
++++++++++++++++++++++++++++++++++++
Date: 03-24-2011, 10:55:25
User: Valued Ocean Optics Customer
Spectrometer Serial Number: USB4C01507
Spectrometer Channel: Master
Integration Time (msec): 46
Spectra Averaged: 30
Boxcar Smoothing: 5
Correct for Electrical Dark: Enabled
Time Normalized: Disabled
Dual-beam Reference: Disabled
Reference Channel: Master
Temperature: Not acquired
Spectrometer Type: S4000
ADC Type: USB4000
Number of Pixels in File: 3648
Graph Title: 
>>>>>Begin Spectral Data<<<<<
179.17	1112.407
179.39	3142.752
179.60	101.610
179.82	-245.615
180.03	277.620
180.24	991.199
180.46	26.552
180.67	151.848
180.89	128.780
181.10	-240.745
181.31	73.789
181.53	-72.550
181.74	-42.174
181.96	90.983
182.17	40.526
182.39	94.641
182.60	36.509
182.81	111.542
183.03	54.255
183.24	-343.189
183.46	-29.765
183.67	-4.941
183.88	-16.657
184.10	-5.427
184.31	-5.803
184.53	0.994
184.74	-3.889
184.96	-3.554
185.17	-6.622
185.38	-2.839
185.60	10.205
185.81	8.756
186.03	3.720
186.24	10.193
186.45	10.189
186.67	7.966
186.88	10.397
187.10	11.993
187.31	7.012
187.52	-1.813
187.74	-0.643
187.95	-7.537
188.17	-12.376
188.38	-15.555
188.59	-16.575
188.81	-24.855
189.02	-13.987
189.24	-12.223
189.45	-3.620
189.66	0.809
189.88	-2.286
190.09	-1.781
190.30	1.140
190.52	1.728
190.73	8.436
190.95	9.445
191.16	12.219
191.37	2.357
191.59	-3.129
191.80	-6.217
192.02	-7.074
192.23	3.155
192.44	-7.459
192.66	-5.857
192.87	-17.712
193.08	-19.268
193.30	-19.187
193.51	-14.231
193.73	-5.302
193.94	-5.831
194.15	-0.663
194.37	2.635
194.58	2.900
194.79	0.764
195.01	-3.605
195.22	1.923
195.44	3.619
195.65	-2.178
195.86	-5.936
196.08	-13.679
196.29	-14.602
196.50	-19.934
196.72	-17.080
196.93	-17.338
197.14	-16.016
197.36	-10.424
197.57	-10.814
197.79	-11.871
198.00	-10.098
198.21	-2.605
198.43	3.622
198.64	1.294
198.85	-0.175
199.07	-2.060
199.28	-0.502
199.49	1.652
199.71	-7.818
199.92	-6.955
200.13	-15.229
200.35	-12.207
200.56	-30.180
200.78	-29.105
200.99	-22.916
201.20	-16.902
201.42	-13.295
201.63	-20.075
201.84	-18.853
202.06	-12.052
202.27	-5.487
202.48	2.756
202.70	-5.628
202.91	2.049
203.12	-1.033
203.34	1.478
203.55	0.738
203.76	-7.530
203.98	1.885
204.19	2.732
204.40	3.695
204.62	2.685
204.83	-4.443
205.04	0.225
205.26	0.122
205.47	4.121
205.68	-0.617
205.90	-2.035
206.11	2.426
206.32	-3.326
206.54	-3.269
206.75	-4.566
206.96	-8.439
207.18	3.469
207.39	5.105
207.60	12.462
207.82	5.251
208.03	9.602
208.24	6.583
208.45	11.486
208.67	7.810
208.88	4.642
209.09	6.172
209.31	6.848
209.52	0.345
209.73	2.489
209.95	-0.768
210.16	5.833
210.37	2.673
210.59	5.750
210.80	4.802
211.01	8.470
211.23	10.973
211.44	8.467
211.65	7.738
211.86	10.483
212.08	7.580
212.29	4.163
212.50	-0.292
212.72	-0.017
212.93	-0.298
213.14	-0.796
213.36	-2.937
213.57	-1.838
213.78	-2.057
213.99	1.706
214.21	3.621
214.42	6.658
214.63	6.692
214.85	5.614
215.06	7.102
215.27	9.574
215.49	5.703
215.70	5.177
215.91	4.869
216.12	3.908
216.34	3.097
216.55	0.147
216.76	-2.450
216.98	-4.945
217.19	-1.192
217.40	-0.316
217.61	-1.228
217.83	2.351
218.04	2.585
218.25	1.934
218.47	3.472
218.68	4.278
218.89	5.374
219.10	7.111
219.32	6.984
219.53	5.772
219.74	5.796
219.95	4.164
220.17	3.659
220.38	5.174
220.59	3.953
220.81	4.381
221.02	4.081
221.23	4.574
221.44	3.350
221.66	4.965
221.87	4.615
222.08	4.677
222.29	5.067
222.51	5.937
222.72	5.496
222.93	6.577
223.14	6.426
223.36	5.201
223.57	4.729
223.78	4.458
223.99	4.068
224.21	3.825
224.42	2.795
224.63	2.843
224.84	0.768
225.06	1.026
225.27	0.731
225.48	0.794
225.69	0.878
225.91	1.187
226.12	1.441
226.33	2.455
226.54	2.382
226.76	2.807
226.97	2.767
227.18	2.929
227.39	2.728
227.61	2.845
227.82	2.766
228.03	2.888
228.24	2.751
228.46	2.815
228.67	2.625
228.88	2.636
229.09	2.490
229.31	2.486
229.52	2.567
229.73	2.744
229.94	2.725
230.16	2.768
230.37	2.769
230.58	2.652
230.79	2.524
231.00	2.643
231.22	2.817
231.43	3.045
231.64	2.856
231.85	2.791
232.07	2.410
232.28	2.341
232.49	2.389
232.70	2.265
232.91	2.811
233.13	2.819
233.34	2.860
233.55	3.105
233.76	2.911
233.98	3.293
234.19	3.129
234.40	3.241
234.61	3.296
234.82	3.279
235.04	3.251
235.25	3.278
235.46	3.345
235.67	3.164
235.88	3.085
236.10	3.523
236.31	3.442
236.52	3.778
236.73	4.292
236.94	4.403
237.16	3.912
237.37	4.054
237.58	3.422
237.79	3.477
238.01	3.275
238.22	2.878
238.43	2.552
238.64	2.624
238.85	2.360
239.06	2.394
239.28	1.979
239.49	2.491
239.70	2.435
239.91	2.801
240.12	2.728
240.34	2.632
240.55	2.636
240.76	2.690
240.97	2.617
241.18	2.520
241.40	2.330
241.61	2.381
241.82	2.317
242.03	2.312
242.24	2.233
242.45	2.233
242.67	2.423
242.88	2.512
243.09	2.329
243.30	2.224
243.51	2.551
243.73	2.416
243.94	2.349
244.15	2.365
244.36	2.359
244.57	2.501
244.78	2.471
245.00	2.208
245.21	2.120
245.42	2.292
245.63	2.273
245.84	2.263
246.05	2.227
246.27	2.285
246.48	2.262
246.69	2.248
246.90	2.224
247.11	2.165
247.32	2.224
247.54	2.270
247.75	2.182
247.96	2.187
248.17	2.134
248.38	2.292
248.59	2.293
248.81	2.285
249.02	2.309
249.23	2.096
249.44	2.072
249.65	2.084
249.86	1.699
250.07	2.039
250.29	1.964
250.50	1.890
250.71	1.700
250.92	1.584
251.13	1.685
251.34	1.823
251.55	1.801
251.77	1.970
251.98	1.866
252.19	2.055
252.40	1.863
252.61	1.900
252.82	1.786
253.03	1.736
253.25	1.835
253.46	1.768
253.67	1.735
253.88	1.863
254.09	1.841
254.30	1.780
254.51	1.954
254.73	2.145
254.94	2.258
255.15	2.485
255.36	2.436
255.57	2.243
255.78	2.072
255.99	1.799
256.20	1.966
256.42	1.893
256.63	1.799
256.84	1.648
257.05	1.614
257.26	1.646
257.47	1.574
257.68	1.704
257.89	1.736
258.10	1.815
258.32	1.814
258.53	1.777
258.74	1.721
258.95	1.797
259.16	1.842
259.37	1.881
259.58	1.792
259.79	1.831
260.00	1.788
260.22	1.826
260.43	1.840
260.64	1.853
260.85	1.906
261.06	1.964
261.27	1.945
261.48	1.944
261.69	1.727
261.90	1.865
262.12	1.797
262.33	1.884
262.54	1.852
262.75	1.923
262.96	1.883
263.17	1.832
263.38	1.884
263.59	1.992
263.80	2.028
264.01	2.271
264.22	2.161
264.44	2.066
264.65	1.933
264.86	2.053
265.07	1.853
265.28	1.897
265.49	1.865
265.70	1.837
265.91	1.723
266.12	1.596
266.33	1.512
266.54	1.569
266.75	1.602
266.97	1.733
267.18	1.638
267.39	1.697
267.60	1.717
267.81	1.680
268.02	1.614
268.23	1.756
268.44	1.746
268.65	1.814
268.86	1.843
269.07	1.923
269.28	1.741
269.49	1.811
269.70	1.795
269.92	1.655
270.13	1.671
270.34	1.792
270.55	1.650
270.76	1.688
270.97	1.735
271.18	1.687
271.39	1.550
271.60	1.648
271.81	1.612
272.02	1.649
272.23	1.757
272.44	1.754
272.65	1.713
272.86	1.729
273.07	1.698
273.28	1.686
273.49	1.712
273.71	1.760
273.92	1.745
274.13	1.631
274.34	1.496
274.55	1.449
274.76	1.465
274.97	1.540
275.18	1.495
275.39	1.605
275.60	1.464
275.81	1.572
276.02	1.561
276.23	1.505
276.44	1.507
276.65	1.652
276.86	1.631
277.07	1.713
277.28	1.600
277.49	1.706
277.70	1.586
277.91	1.705
278.12	1.499
278.33	1.440
278.54	1.540
278.75	1.572
278.96	1.414
279.17	1.454
279.39	1.289
279.60	1.297
279.81	1.238
280.02	1.268
280.23	1.229
280.44	1.335
280.65	1.431
280.86	1.436
281.07	1.512
281.28	1.619
281.49	1.519
281.70	1.626
281.91	1.597
282.12	1.643
282.33	1.635
282.54	1.553
282.75	1.571
282.96	1.622
283.17	1.596
283.38	1.608
283.59	1.613
283.80	1.626
284.01	1.502
284.22	1.584
284.43	1.490
284.64	1.462
284.85	1.577
285.06	1.558
285.27	1.542
285.48	1.501
285.69	1.472
285.90	1.453
286.11	1.554
286.32	1.584
286.53	1.482
286.74	1.603
286.95	1.617
287.16	1.581
287.37	1.501
287.58	1.427
287.79	1.475
288.00	1.485
288.21	1.471
288.42	1.366
288.63	1.463
288.84	1.535
289.05	1.469
289.26	1.511
289.47	1.528
289.68	1.578
289.89	1.597
290.10	1.503
290.31	1.474
290.51	1.465
290.72	1.489
290.93	1.474
291.14	1.432
291.35	1.408
291.56	1.374
291.77	1.302
291.98	1.256
292.19	1.291
292.40	1.402
292.61	1.348
292.82	1.373
293.03	1.432
293.24	1.366
293.45	1.429
293.66	1.443
293.87	1.502
294.08	1.487
294.29	1.575
294.50	1.441
294.71	1.463
294.92	1.470
295.13	1.443
295.34	1.326
295.55	1.377
295.76	1.292
295.96	1.286
296.17	1.267
296.38	1.311
296.59	1.274
296.80	1.311
297.01	1.255
297.22	1.316
297.43	1.351
297.64	1.437
297.85	1.414
298.06	1.434
298.27	1.450
298.48	1.458
298.69	1.422
298.90	1.414
299.11	1.439
299.32	1.493
299.53	1.530
299.73	1.516
299.94	1.475
300.15	1.475
300.36	1.501
300.57	1.526
300.78	1.481
300.99	1.509
301.20	1.492
301.41	1.504
301.62	1.535
301.83	1.490
302.04	1.423
302.25	1.397
302.45	1.357
302.66	1.340
302.87	1.295
303.08	1.321
303.29	1.308
303.50	1.365
303.71	1.435
303.92	1.388
304.13	1.344
304.34	1.358
304.55	1.339
304.76	1.367
304.96	1.364
305.17	1.377
305.38	1.336
305.59	1.335
305.80	1.275
306.01	1.230
306.22	1.216
306.43	1.196
306.64	1.168
306.85	1.188
307.06	1.153
307.26	1.123
307.47	1.082
307.68	1.160
307.89	1.170
308.10	1.171
308.31	1.174
308.52	1.184
308.73	1.242
308.94	1.284
309.14	1.336
309.35	1.424
309.56	1.521
309.77	1.510
309.98	1.524
310.19	1.535
310.40	1.537
310.61	1.497
310.82	1.461
311.02	1.439
311.23	1.420
311.44	1.373
311.65	1.290
311.86	1.247
312.07	1.278
312.28	1.180
312.49	1.099
312.69	1.053
312.90	1.030
313.11	1.046
313.32	1.046
313.53	1.028
313.74	0.976
313.95	1.019
314.16	0.996
314.36	1.007
314.57	1.102
314.78	1.130
314.99	1.171
315.20	1.219
315.41	1.236
315.62	1.147
315.82	1.185
316.03	1.254
316.24	1.248
316.45	1.315
316.66	1.322
316.87	1.309
317.08	1.296
317.28	1.350
317.49	1.322
317.70	1.324
317.91	1.436
318.12	1.455
318.33	1.399
318.54	1.368
318.74	1.318
318.95	1.302
319.16	1.305
319.37	1.357
319.58	1.316
319.79	1.251
319.99	1.222
320.20	1.146
320.41	1.121
320.62	1.139
320.83	1.166
321.04	1.136
321.24	1.126
321.45	1.144
321.66	1.138
321.87	1.175
322.08	1.274
322.29	1.292
322.49	1.335
322.70	1.332
322.91	1.347
323.12	1.389
323.33	1.377
323.54	1.377
323.74	1.358
323.95	1.335
324.16	1.350
324.37	1.337
324.58	1.342
324.79	1.331
324.99	1.291
325.20	1.321
325.41	1.266
325.62	1.323
325.83	1.295
326.03	1.219
326.24	1.242
326.45	1.253
326.66	1.209
326.87	1.184
327.07	1.182
327.28	1.234
327.49	1.222
327.70	1.249
327.91	1.218
328.11	1.226
328.32	1.284
328.53	1.316
328.74	1.287
328.95	1.285
329.15	1.309
329.36	1.367
329.57	1.342
329.78	1.367
329.99	1.314
330.19	1.298
330.40	1.281
330.61	1.287
330.82	1.236
331.03	1.160
331.23	1.204
331.44	1.236
331.65	1.195
331.86	1.253
332.07	1.198
332.27	1.215
332.48	1.241
332.69	1.309
332.90	1.321
333.10	1.349
333.31	1.408
333.52	1.383
333.73	1.350
333.94	1.308
334.14	1.293
334.35	1.316
334.56	1.336
334.77	1.298
334.97	1.249
335.18	1.192
335.39	1.115
335.60	1.110
335.80	1.078
336.01	1.109
336.22	1.076
336.43	1.047
336.64	1.058
336.84	1.041
337.05	1.051
337.26	1.029
337.47	1.036
337.67	1.137
337.88	1.091
338.09	1.090
338.30	1.085
338.50	1.181
338.71	1.188
338.92	1.190
339.13	1.217
339.33	1.224
339.54	1.219
339.75	1.249
339.96	1.190
340.16	1.179
340.37	1.250
340.58	1.210
340.79	1.167
340.99	1.197
341.20	1.137
341.41	1.107
341.62	1.114
341.82	1.171
342.03	1.128
342.24	1.109
342.44	1.164
342.65	1.122
342.86	1.087
343.07	1.084
343.27	1.068
343.48	1.123
343.69	1.100
343.90	1.116
344.10	1.072
344.31	1.097
344.52	1.156
344.72	1.145
344.93	1.116
345.14	1.147
345.35	1.150
345.55	1.141
345.76	1.093
345.97	1.124
346.18	1.064
346.38	1.052
346.59	1.021
346.80	1.003
347.00	0.978
347.21	1.008
347.42	1.038
347.62	1.040
347.83	0.977
348.04	0.987
348.25	0.996
348.45	1.010
348.66	1.027
348.87	1.075
349.07	1.040
349.28	1.065
349.49	1.047
349.70	1.050
349.90	1.035
350.11	1.087
350.32	1.056
350.52	1.053
350.73	1.058
350.94	1.098
351.14	1.069
351.35	1.103
351.56	1.099
351.76	1.140
351.97	1.109
352.18	1.121
352.39	1.094
352.59	1.156
352.80	1.152
353.01	1.204
353.21	1.191
353.42	1.212
353.63	1.174
353.83	1.173
354.04	1.148
354.25	1.136
354.45	1.126
354.66	1.166
354.87	1.118
355.07	1.128
355.28	1.109
355.49	1.098
355.69	1.092
355.90	1.135
356.11	1.144
356.31	1.164
356.52	1.199
356.73	1.223
356.93	1.192
357.14	1.214
357.35	1.228
357.55	1.226
357.76	1.205
357.97	1.177
358.17	1.178
358.38	1.174
358.59	1.155
358.79	1.121
359.00	1.094
359.21	1.089
359.41	1.056
359.62	1.047
359.83	1.009
360.03	0.992
360.24	1.029
360.44	1.006
360.65	1.005
360.86	1.010
361.06	0.995
361.27	0.998
361.48	0.984
361.68	1.037
361.89	1.024
362.10	1.038
362.30	1.061
362.51	1.050
362.72	1.063
362.92	1.088
363.13	1.059
363.33	1.074
363.54	1.083
363.75	1.132
363.95	1.116
364.16	1.131
364.37	1.152
364.57	1.156
364.78	1.150
364.98	1.143
365.19	1.084
365.40	1.132
365.60	1.120
365.81	1.111
366.02	1.094
366.22	1.081
366.43	1.079
366.63	1.066
366.84	1.042
367.05	1.038
367.25	0.985
367.46	0.994
367.66	0.971
367.87	1.012
368.08	1.026
368.28	1.046
368.49	1.049
368.69	1.006
368.90	1.005
369.11	1.030
369.31	1.035
369.52	1.105
369.72	1.106
369.93	1.102
370.14	1.082
370.34	1.056
370.55	1.016
370.75	1.023
370.96	1.042
371.17	1.061
371.37	1.047
371.58	1.046
371.78	1.030
371.99	1.043
372.20	1.052
372.40	1.043
372.61	1.059
372.81	1.101
373.02	1.100
373.23	1.073
373.43	1.064
373.64	1.083
373.84	1.071
374.05	1.097
374.25	1.111
374.46	1.083
374.67	1.079
374.87	1.115
375.08	1.085
375.28	1.067
375.49	1.090
375.69	1.094
375.90	1.073
376.11	1.069
376.31	1.033
376.52	1.014
376.72	1.028
376.93	1.021
377.13	0.961
377.34	0.990
377.55	1.010
377.75	1.011
377.96	0.959
378.16	0.954
378.37	0.998
378.57	1.020
378.78	1.028
378.98	1.033
379.19	1.051
379.40	1.038
379.60	0.992
379.81	0.979
380.01	0.968
380.22	0.988
380.42	0.998
380.63	0.973
380.83	0.925
381.04	0.897
381.24	0.874
381.45	0.874
381.66	0.911
381.86	0.924
382.07	0.920
382.27	0.943
382.48	0.943
382.68	0.942
382.89	0.943
383.09	0.990
383.30	1.001
383.50	1.023
383.71	0.989
383.91	0.978
384.12	0.995
384.32	0.990
384.53	0.981
384.73	0.991
384.94	1.002
385.15	0.999
385.35	0.987
385.56	1.008
385.76	0.980
385.97	1.002
386.17	1.019
386.38	1.015
386.58	1.021
386.79	1.036
386.99	1.026
387.20	1.012
387.40	1.000
387.61	1.012
387.81	0.983
388.02	1.008
388.22	1.005
388.43	0.989
388.63	0.994
388.84	1.002
389.04	0.993
389.25	1.015
389.45	0.989
389.66	1.015
389.86	1.004
390.07	1.033
390.27	1.029
390.48	1.027
390.68	1.033
390.89	1.051
391.09	1.057
391.30	1.064
391.50	1.061
391.71	1.096
391.91	1.068
392.12	1.089
392.32	1.079
392.53	1.085
392.73	1.092
392.94	1.083
393.14	1.057
393.35	1.060
393.55	1.053
393.75	1.059
393.96	1.040
394.16	1.038
394.37	1.010
394.57	1.013
394.78	1.022
394.98	1.018
395.19	1.005
395.39	1.008
395.60	0.994
395.80	0.988
396.01	0.980
396.21	1.015
396.42	1.016
396.62	1.022
396.83	1.008
397.03	0.992
397.23	0.993
397.44	1.011
397.64	1.005
397.85	1.010
398.05	1.020
398.26	1.026
398.46	0.993
398.67	1.007
398.87	1.001
399.08	1.010
399.28	1.009
399.48	1.002
399.69	0.983
399.89	0.997
400.10	0.999
400.30	0.987
400.51	0.975
400.71	0.990
400.92	1.001
401.12	1.016
401.32	1.008
401.53	1.001
401.73	1.000
401.94	1.028
402.14	1.010
402.35	1.024
402.55	1.018
402.75	1.018
402.96	1.019
403.16	1.004
403.37	0.997
403.57	1.015
403.78	1.023
403.98	1.056
404.18	1.041
404.39	1.040
404.59	1.021
404.80	1.036
405.00	1.029
405.21	1.032
405.41	1.042
405.61	1.049
405.82	1.045
406.02	1.063
406.23	1.049
406.43	1.078
406.63	1.092
406.84	1.105
407.04	1.105
407.25	1.125
407.45	1.134
407.65	1.127
407.86	1.092
408.06	1.079
408.27	1.055
408.47	1.063
408.67	1.026
408.88	1.022
409.08	1.017
409.29	1.024
409.49	1.024
409.69	1.003
409.90	1.010
410.10	1.034
410.31	1.059
410.51	1.075
410.71	1.057
410.92	1.058
411.12	1.050
411.33	1.065
411.53	1.051
411.73	1.025
411.94	1.039
412.14	1.019
412.34	1.033
412.55	1.023
412.75	1.013
412.96	1.013
413.16	1.025
413.36	1.028
413.57	1.011
413.77	1.005
413.97	1.042
414.18	1.034
414.38	1.057
414.59	1.065
414.79	1.051
414.99	1.051
415.20	1.048
415.40	1.068
415.60	1.068
415.81	1.063
416.01	1.071
416.21	1.061
416.42	1.062
416.62	1.069
416.83	1.042
417.03	1.036
417.23	1.027
417.44	1.022
417.64	0.998
417.84	0.994
418.05	1.018
418.25	1.023
418.45	1.017
418.66	1.023
418.86	1.005
419.06	1.016
419.27	1.015
419.47	1.029
419.67	1.032
419.88	1.036
420.08	1.024
420.28	0.998
420.49	0.998
420.69	0.991
420.89	0.980
421.10	0.990
421.30	0.985
421.50	0.985
421.71	0.973
421.91	0.975
422.11	0.971
422.32	0.995
422.52	0.991
422.72	0.995
422.93	1.005
423.13	1.020
423.33	1.025
423.54	1.024
423.74	1.024
423.94	1.034
424.15	1.027
424.35	1.036
424.55	1.023
424.76	1.036
424.96	1.036
425.16	1.042
425.36	1.031
425.57	1.024
425.77	1.035
425.97	1.046
426.18	1.048
426.38	1.060
426.58	1.055
426.79	1.067
426.99	1.068
427.19	1.067
427.39	1.066
427.60	1.071
427.80	1.088
428.00	1.091
428.21	1.083
428.41	1.089
428.61	1.092
428.82	1.097
429.02	1.096
429.22	1.105
429.42	1.097
429.63	1.081
429.83	1.087
430.03	1.074
430.24	1.070
430.44	1.086
430.64	1.084
430.84	1.080
431.05	1.070
431.25	1.062
431.45	1.050
431.65	1.062
431.86	1.068
432.06	1.064
432.26	1.058
432.47	1.060
432.67	1.054
432.87	1.047
433.07	1.057
433.28	1.081
433.48	1.083
433.68	1.076
433.88	1.067
434.09	1.079
434.29	1.079
434.49	1.091
434.69	1.071
434.90	1.077
435.10	1.075
435.30	1.076
435.51	1.069
435.71	1.075
435.91	1.089
436.11	1.105
436.32	1.087
436.52	1.099
436.72	1.099
436.92	1.112
437.13	1.104
437.33	1.112
437.53	1.110
437.73	1.086
437.93	1.085
438.14	1.082
438.34	1.065
438.54	1.076
438.74	1.079
438.95	1.058
439.15	1.068
439.35	1.072
439.55	1.064
439.76	1.064
439.96	1.094
440.16	1.101
440.36	1.096
440.56	1.107
440.77	1.091
440.97	1.073
441.17	1.081
441.37	1.079
441.58	1.075
441.78	1.095
441.98	1.089
442.18	1.077
442.38	1.063
442.59	1.076
442.79	1.057
442.99	1.088
443.19	1.104
443.40	1.125
443.60	1.114
443.80	1.111
444.00	1.094
444.20	1.100
444.41	1.088
444.61	1.098
444.81	1.103
445.01	1.106
445.21	1.088
445.42	1.086
445.62	1.078
445.82	1.080
446.02	1.083
446.22	1.079
446.43	1.077
446.63	1.082
446.83	1.081
447.03	1.078
447.23	1.089
447.44	1.097
447.64	1.088
447.84	1.085
448.04	1.089
448.24	1.091
448.44	1.099
448.65	1.092
448.85	1.088
449.05	1.093
449.25	1.086
449.45	1.101
449.65	1.101
449.86	1.115
450.06	1.126
450.26	1.136
450.46	1.145
450.66	1.139
450.87	1.161
451.07	1.175
451.27	1.172
451.47	1.164
451.67	1.145
451.87	1.139
452.08	1.153
452.28	1.143
452.48	1.126
452.68	1.118
452.88	1.131
453.08	1.120
453.28	1.109
453.49	1.106
453.69	1.122
453.89	1.118
454.09	1.130
454.29	1.116
454.49	1.124
454.70	1.143
454.90	1.154
455.10	1.157
455.30	1.154
455.50	1.172
455.70	1.178
455.90	1.182
456.11	1.182
456.31	1.175
456.51	1.173
456.71	1.163
456.91	1.155
457.11	1.154
457.31	1.150
457.51	1.159
457.72	1.146
457.92	1.138
458.12	1.116
458.32	1.135
458.52	1.134
458.72	1.144
458.92	1.144
459.12	1.146
459.33	1.133
459.53	1.131
459.73	1.139
459.93	1.143
460.13	1.149
460.33	1.160
460.53	1.158
460.73	1.157
460.93	1.159
461.14	1.172
461.34	1.177
461.54	1.192
461.74	1.201
461.94	1.194
462.14	1.194
462.34	1.193
462.54	1.194
462.74	1.173
462.95	1.177
463.15	1.173
463.35	1.161
463.55	1.156
463.75	1.157
463.95	1.150
464.15	1.150
464.35	1.150
464.55	1.152
464.75	1.152
464.95	1.176
465.16	1.175
465.36	1.168
465.56	1.169
465.76	1.182
465.96	1.189
466.16	1.203
466.36	1.217
466.56	1.210
466.76	1.215
466.96	1.222
467.16	1.215
467.36	1.214
467.57	1.221
467.77	1.226
467.97	1.224
468.17	1.213
468.37	1.194
468.57	1.197
468.77	1.208
468.97	1.196
469.17	1.201
469.37	1.203
469.57	1.207
469.77	1.216
469.97	1.220
470.17	1.208
470.37	1.211
470.57	1.220
470.78	1.204
470.98	1.214
471.18	1.234
471.38	1.226
471.58	1.235
471.78	1.239
471.98	1.231
472.18	1.234
472.38	1.239
472.58	1.254
472.78	1.275
472.98	1.291
473.18	1.291
473.38	1.299
473.58	1.306
473.78	1.298
473.98	1.296
474.18	1.309
474.38	1.315
474.58	1.327
474.78	1.323
474.98	1.315
475.18	1.329
475.38	1.325
475.58	1.311
475.79	1.309
475.99	1.310
476.19	1.317
476.39	1.309
476.59	1.309
476.79	1.313
476.99	1.317
477.19	1.318
477.39	1.296
477.59	1.292
477.79	1.296
477.99	1.294
478.19	1.289
478.39	1.291
478.59	1.297
478.79	1.295
478.99	1.297
479.19	1.303
479.39	1.300
479.59	1.320
479.79	1.320
479.99	1.321
480.19	1.320
480.39	1.326
480.59	1.321
480.79	1.321
480.99	1.316
481.19	1.310
481.39	1.298
481.59	1.292
481.79	1.293
481.99	1.296
482.19	1.295
482.39	1.307
482.59	1.314
482.79	1.316
482.99	1.316
483.19	1.333
483.39	1.353
483.59	1.366
483.79	1.369
483.99	1.363
484.19	1.356
484.39	1.355
484.58	1.353
484.78	1.353
484.98	1.353
485.18	1.355
485.38	1.351
485.58	1.337
485.78	1.320
485.98	1.324
486.18	1.329
486.38	1.345
486.58	1.356
486.78	1.359
486.98	1.361
487.18	1.367
487.38	1.372
487.58	1.372
487.78	1.372
487.98	1.379
488.18	1.372
488.38	1.370
488.58	1.367
488.78	1.366
488.98	1.369
489.18	1.371
489.37	1.369
489.57	1.371
489.77	1.377
489.97	1.384
490.17	1.393
490.37	1.400
490.57	1.404
490.77	1.411
490.97	1.411
491.17	1.410
491.37	1.414
491.57	1.420
491.77	1.414
491.97	1.416
492.17	1.414
492.37	1.414
492.56	1.415
492.76	1.419
492.96	1.421
493.16	1.431
493.36	1.435
493.56	1.442
493.76	1.446
493.96	1.459
494.16	1.456
494.36	1.461
494.56	1.459
494.76	1.474
494.95	1.480
495.15	1.486
495.35	1.483
495.55	1.490
495.75	1.487
495.95	1.486
496.15	1.494
496.35	1.501
496.55	1.506
496.75	1.522
496.95	1.515
497.14	1.518
497.34	1.520
497.54	1.526
497.74	1.529
497.94	1.542
498.14	1.550
498.34	1.543
498.54	1.544
498.74	1.546
498.93	1.546
499.13	1.548
499.33	1.559
499.53	1.560
499.73	1.558
499.93	1.565
500.13	1.558
500.33	1.556
500.53	1.567
500.72	1.578
500.92	1.586
501.12	1.585
501.32	1.591
501.52	1.584
501.72	1.591
501.92	1.597
502.12	1.586
502.31	1.599
502.51	1.600
502.71	1.607
502.91	1.597
503.11	1.609
503.31	1.615
503.51	1.617
503.70	1.614
503.90	1.623
504.10	1.629
504.30	1.640
504.50	1.636
504.70	1.652
504.90	1.657
505.09	1.678
505.29	1.666
505.49	1.664
505.69	1.669
505.89	1.685
506.09	1.677
506.29	1.674
506.48	1.673
506.68	1.688
506.88	1.690
507.08	1.687
507.28	1.686
507.48	1.691
507.67	1.702
507.87	1.701
508.07	1.699
508.27	1.709
508.47	1.719
508.67	1.729
508.86	1.720
509.06	1.713
509.26	1.714
509.46	1.729
509.66	1.739
509.85	1.739
510.05	1.752
510.25	1.754
510.45	1.758
510.65	1.757
510.85	1.757
511.04	1.764
511.24	1.776
511.44	1.792
511.64	1.781
511.84	1.789
512.03	1.792
512.23	1.791
512.43	1.787
512.63	1.793
512.83	1.805
513.02	1.817
513.22	1.821
513.42	1.835
513.62	1.830
513.82	1.840
514.01	1.845
514.21	1.851
514.41	1.858
514.61	1.877
514.81	1.877
515.00	1.875
515.20	1.864
515.40	1.877
515.60	1.862
515.80	1.871
515.99	1.864
516.19	1.856
516.39	1.865
516.59	1.866
516.78	1.868
516.98	1.876
517.18	1.869
517.38	1.885
517.58	1.881
517.77	1.893
517.97	1.892
518.17	1.896
518.37	1.903
518.56	1.900
518.76	1.906
518.96	1.906
519.16	1.904
519.36	1.920
519.55	1.919
519.75	1.930
519.95	1.934
520.15	1.936
520.34	1.948
520.54	1.956
520.74	1.966
520.94	1.967
521.13	1.978
521.33	1.985
521.53	1.991
521.73	2.001
521.92	2.004
522.12	2.019
522.32	2.027
522.52	2.037
522.71	2.047
522.91	2.052
523.11	2.065
523.31	2.063
523.50	2.063
523.70	2.069
523.90	2.073
524.09	2.077
524.29	2.068
524.49	2.079
524.69	2.083
524.88	2.078
525.08	2.084
525.28	2.081
525.48	2.082
525.67	2.087
525.87	2.082
526.07	2.087
526.26	2.088
526.46	2.100
526.66	2.098
526.86	2.098
527.05	2.103
527.25	2.109
527.45	2.115
527.64	2.119
527.84	2.126
528.04	2.132
528.24	2.135
528.43	2.142
528.63	2.144
528.83	2.152
529.02	2.154
529.22	2.155
529.42	2.154
529.62	2.158
529.81	2.166
530.01	2.166
530.21	2.164
530.40	2.168
530.60	2.168
530.80	2.173
530.99	2.177
531.19	2.181
531.39	2.185
531.58	2.195
531.78	2.204
531.98	2.208
532.18	2.220
532.37	2.236
532.57	2.236
532.77	2.243
532.96	2.243
533.16	2.245
533.36	2.254
533.55	2.266
533.75	2.268
533.95	2.268
534.14	2.269
534.34	2.280
534.54	2.286
534.73	2.304
534.93	2.312
535.13	2.322
535.32	2.326
535.52	2.329
535.72	2.331
535.91	2.343
536.11	2.345
536.31	2.355
536.50	2.356
536.70	2.362
536.90	2.361
537.09	2.372
537.29	2.367
537.48	2.382
537.68	2.387
537.88	2.389
538.07	2.389
538.27	2.406
538.47	2.414
538.66	2.415
538.86	2.416
539.06	2.424
539.25	2.429
539.45	2.448
539.65	2.458
539.84	2.484
540.04	2.502
540.23	2.522
540.43	2.528
540.63	2.526
540.82	2.534
541.02	2.537
541.22	2.536
541.41	2.539
541.61	2.540
541.80	2.538
542.00	2.530
542.20	2.524
542.39	2.519
542.59	2.522
542.79	2.527
542.98	2.530
543.18	2.531
543.37	2.535
543.57	2.532
543.77	2.537
543.96	2.535
544.16	2.539
544.35	2.553
544.55	2.565
544.75	2.565
544.94	2.569
545.14	2.576
545.33	2.593
545.53	2.598
545.73	2.606
545.92	2.619
546.12	2.633
546.31	2.643
546.51	2.647
546.71	2.640
546.90	2.654
547.10	2.657
547.29	2.656
547.49	2.669
547.69	2.683
547.88	2.689
548.08	2.687
548.27	2.692
548.47	2.697
548.66	2.705
548.86	2.718
549.06	2.722
549.25	2.735
549.45	2.753
549.64	2.750
549.84	2.747
550.03	2.755
550.23	2.772
550.43	2.781
550.62	2.794
550.82	2.802
551.01	2.810
551.21	2.817
551.40	2.831
551.60	2.852
551.80	2.858
551.99	2.870
552.19	2.875
552.38	2.874
552.58	2.869
552.77	2.873
552.97	2.876
553.16	2.873
553.36	2.870
553.56	2.876
553.75	2.862
553.95	2.858
554.14	2.856
554.34	2.872
554.53	2.878
554.73	2.893
554.92	2.887
555.12	2.901
555.31	2.920
555.51	2.946
555.70	2.947
555.90	2.959
556.10	2.972
556.29	2.978
556.49	2.976
556.68	2.993
556.88	3.003
557.07	3.021
557.27	3.031
557.46	3.023
557.66	3.024
557.85	3.042
558.05	3.044
558.24	3.057
558.44	3.076
558.63	3.080
558.83	3.072
559.02	3.082
559.22	3.091
559.41	3.090
559.61	3.096
559.80	3.090
560.00	3.076
560.19	3.086
560.39	3.090
560.58	3.095
560.78	3.115
560.97	3.131
561.17	3.135
561.36	3.134
561.56	3.131
561.75	3.153
561.95	3.177
562.14	3.187
562.34	3.198
562.53	3.192
562.73	3.189
562.92	3.187
563.12	3.192
563.31	3.188
563.51	3.195
563.70	3.208
563.90	3.204
564.09	3.199
564.29	3.206
564.48	3.200
564.68	3.217
564.87	3.234
565.07	3.234
565.26	3.235
565.45	3.247
565.65	3.248
565.84	3.253
566.04	3.255
566.23	3.260
566.43	3.275
566.62	3.276
566.82	3.277
567.01	3.263
567.21	3.271
567.40	3.268
567.60	3.277
567.79	3.289
567.98	3.301
568.18	3.320
568.37	3.331
568.57	3.327
568.76	3.346
568.96	3.354
569.15	3.374
569.35	3.390
569.54	3.407
569.73	3.402
569.93	3.405
570.12	3.403
570.32	3.398
570.51	3.394
570.71	3.406
570.90	3.410
571.09	3.425
571.29	3.436
571.48	3.442
571.68	3.447
571.87	3.452
572.07	3.469
572.26	3.474
572.45	3.482
572.65	3.499
572.84	3.506
573.04	3.514
573.23	3.517
573.43	3.527
573.62	3.530
573.81	3.541
574.01	3.555
574.20	3.542
574.40	3.559
574.59	3.563
574.78	3.551
574.98	3.552
575.17	3.563
575.37	3.561
575.56	3.557
575.75	3.564
575.95	3.571
576.14	3.567
576.34	3.573
576.53	3.574
576.72	3.582
576.92	3.610
577.11	3.622
577.31	3.635
577.50	3.638
577.69	3.650
577.89	3.657
578.08	3.663
578.28	3.677
578.47	3.686
578.66	3.689
578.86	3.708
579.05	3.712
579.24	3.715
579.44	3.706
579.63	3.722
579.83	3.721
580.02	3.723
580.21	3.725
580.41	3.731
580.60	3.750
580.79	3.760
580.99	3.754
581.18	3.764
581.38	3.771
581.57	3.790
581.76	3.790
581.96	3.807
582.15	3.817
582.34	3.825
582.54	3.840
582.73	3.846
582.92	3.856
583.12	3.864
583.31	3.855
583.50	3.842
583.70	3.851
583.89	3.865
584.08	3.877
584.28	3.888
584.47	3.892
584.66	3.897
584.86	3.892
585.05	3.892
585.24	3.890
585.44	3.902
585.63	3.935
585.82	3.933
586.02	3.928
586.21	3.926
586.40	3.923
586.60	3.935
586.79	3.938
586.98	3.935
587.18	3.944
587.37	3.946
587.56	3.949
587.76	3.950
587.95	3.958
588.14	3.977
588.34	3.972
588.53	3.976
588.72	3.992
588.92	4.016
589.11	4.052
589.30	4.062
589.50	4.076
589.69	4.093
589.88	4.097
590.07	4.097
590.27	4.097
590.46	4.102
590.65	4.118
590.85	4.124
591.04	4.108
591.23	4.102
591.43	4.108
591.62	4.123
591.81	4.118
592.00	4.128
592.20	4.139
592.39	4.162
592.58	4.185
592.78	4.195
592.97	4.191
593.16	4.205
593.35	4.207
593.55	4.193
593.74	4.192
593.93	4.209
594.13	4.212
594.32	4.225
594.51	4.223
594.70	4.231
594.90	4.229
595.09	4.231
595.28	4.235
595.47	4.252
595.67	4.279
595.86	4.282
596.05	4.286
596.24	4.287
596.44	4.287
596.63	4.286
596.82	4.268
597.02	4.272
597.21	4.278
597.40	4.278
597.59	4.275
597.79	4.275
597.98	4.281
598.17	4.280
598.36	4.280
598.56	4.282
598.75	4.283
598.94	4.307
599.13	4.323
599.32	4.338
599.52	4.330
599.71	4.348
599.90	4.344
600.09	4.350
600.29	4.351
600.48	4.370
600.67	4.374
600.86	4.393
601.06	4.395
601.25	4.400
601.44	4.404
601.63	4.430
601.82	4.429
602.02	4.457
602.21	4.462
602.40	4.494
602.59	4.506
602.79	4.526
602.98	4.524
603.17	4.523
603.36	4.522
603.55	4.524
603.75	4.527
603.94	4.532
604.13	4.517
604.32	4.524
604.51	4.516
604.71	4.514
604.90	4.505
605.09	4.508
605.28	4.516
605.47	4.531
605.67	4.536
605.86	4.541
606.05	4.560
606.24	4.577
606.43	4.582
606.63	4.604
606.82	4.614
607.01	4.631
607.20	4.653
607.39	4.670
607.59	4.660
607.78	4.672
607.97	4.676
608.16	4.661
608.35	4.671
608.54	4.682
608.74	4.685
608.93	4.701
609.12	4.702
609.31	4.698
609.50	4.709
609.69	4.726
609.89	4.736
610.08	4.759
610.27	4.773
610.46	4.784
610.65	4.788
610.84	4.776
611.04	4.762
611.23	4.769
611.42	4.776
611.61	4.768
611.80	4.776
611.99	4.775
612.19	4.774
612.38	4.776
612.57	4.773
612.76	4.789
612.95	4.803
613.14	4.828
613.33	4.835
613.53	4.845
613.72	4.875
613.91	4.874
614.10	4.897
614.29	4.897
614.48	4.908
614.67	4.932
614.86	4.933
615.06	4.942
615.25	4.928
615.44	4.959
615.63	4.958
615.82	4.939
616.01	4.958
616.20	4.959
616.39	4.982
616.59	4.983
616.78	4.982
616.97	4.996
617.16	5.007
617.35	5.031
617.54	5.021
617.73	5.029
617.92	5.050
618.12	5.030
618.31	5.016
618.50	5.015
618.69	5.031
618.88	5.027
619.07	5.019
619.26	5.023
619.45	5.031
619.64	5.030
619.83	5.051
620.03	5.045
620.22	5.071
620.41	5.100
620.60	5.110
620.79	5.126
620.98	5.128
621.17	5.146
621.36	5.163
621.55	5.182
621.74	5.193
621.93	5.197
622.12	5.233
622.32	5.236
622.51	5.229
622.70	5.229
622.89	5.216
623.08	5.235
623.27	5.254
623.46	5.255
623.65	5.256
623.84	5.269
624.03	5.280
624.22	5.264
624.41	5.274
624.60	5.298
624.79	5.307
624.99	5.316
625.18	5.325
625.37	5.333
625.56	5.333
625.75	5.347
625.94	5.347
626.13	5.347
626.32	5.357
626.51	5.373
626.70	5.362
626.89	5.373
627.08	5.383
627.27	5.386
627.46	5.373
627.65	5.386
627.84	5.378
628.03	5.373
628.22	5.379
628.41	5.386
628.60	5.387
628.79	5.400
628.98	5.390
629.17	5.377
629.37	5.392
629.56	5.409
629.75	5.409
629.94	5.419
630.13	5.452
630.32	5.477
630.51	5.490
630.70	5.499
630.89	5.510
631.08	5.542
631.27	5.566
631.46	5.577
631.65	5.578
631.84	5.595
632.03	5.577
632.22	5.583
632.41	5.577
632.60	5.583
632.79	5.584
632.98	5.580
633.17	5.583
633.36	5.604
633.55	5.599
633.74	5.615
633.93	5.625
634.12	5.651
634.31	5.661
634.50	5.679
634.69	5.681
634.88	5.690
635.07	5.699
635.26	5.704
635.45	5.695
635.64	5.696
635.83	5.690
636.02	5.693
636.21	5.699
636.40	5.692
636.59	5.673
636.78	5.665
636.96	5.669
637.15	5.659
637.34	5.661
637.53	5.681
637.72	5.696
637.91	5.716
638.10	5.719
638.29	5.741
638.48	5.758
638.67	5.756
638.86	5.770
639.05	5.790
639.24	5.804
639.43	5.827
639.62	5.815
639.81	5.815
640.00	5.799
640.19	5.812
640.38	5.819
640.57	5.820
640.76	5.836
640.95	5.861
641.14	5.867
641.32	5.904
641.51	5.893
641.70	5.917
641.89	5.938
642.08	5.973
642.27	5.988
642.46	5.980
642.65	5.981
642.84	6.004
643.03	6.004
643.22	6.002
643.41	6.016
643.60	6.042
643.79	6.054
643.98	6.053
644.16	6.056
644.35	6.062
644.54	6.076
644.73	6.096
644.92	6.095
645.11	6.086
645.30	6.099
645.49	6.107
645.68	6.084
645.87	6.091
646.06	6.109
646.24	6.117
646.43	6.112
646.62	6.105
646.81	6.113
647.00	6.126
647.19	6.139
647.38	6.151
647.57	6.139
647.76	6.159
647.95	6.173
648.13	6.170
648.32	6.167
648.51	6.193
648.70	6.183
648.89	6.192
649.08	6.183
649.27	6.191
649.46	6.187
649.65	6.173
649.83	6.186
650.02	6.180
650.21	6.209
650.40	6.209
650.59	6.193
650.78	6.218
650.97	6.216
651.16	6.234
651.34	6.246
651.53	6.247
651.72	6.257
651.91	6.237
652.10	6.246
652.29	6.242
652.48	6.268
652.66	6.284
652.85	6.300
653.04	6.303
653.23	6.298
653.42	6.301
653.61	6.306
653.80	6.328
653.98	6.348
654.17	6.374
654.36	6.374
654.55	6.367
654.74	6.390
654.93	6.398
655.11	6.408
655.30	6.424
655.49	6.443
655.68	6.463
655.87	6.468
656.06	6.476
656.24	6.473
656.43	6.476
656.62	6.483
656.81	6.486
657.00	6.497
657.19	6.515
657.37	6.528
657.56	6.523
657.75	6.460
657.94	6.502
658.13	6.523
658.31	6.528
658.50	6.533
658.69	6.551
658.88	6.550
659.07	6.540
659.26	6.553
659.44	6.548
659.63	6.566
659.82	6.637
660.01	6.618
660.20	6.604
660.38	6.603
660.57	6.629
660.76	6.619
660.95	6.635
661.14	6.660
661.32	6.655
661.51	6.684
661.70	6.703
661.89	6.716
662.08	6.736
662.26	6.763
662.45	6.754
662.64	6.756
662.83	6.792
663.01	6.787
663.20	6.784
663.39	6.810
663.58	6.808
663.77	6.792
663.95	6.805
664.14	6.795
664.33	6.811
664.52	6.832
664.70	6.831
664.89	6.839
665.08	6.860
665.27	6.878
665.45	6.888
665.64	6.879
665.83	6.896
666.02	6.897
666.20	6.910
666.39	6.905
666.58	6.933
666.77	6.944
666.95	6.939
667.14	6.935
667.33	6.962
667.52	6.953
667.70	6.967
667.89	6.956
668.08	6.957
668.27	6.963
668.45	6.963
668.64	6.964
668.83	6.955
669.02	6.964
669.20	6.984
669.39	6.975
669.58	6.995
669.77	6.993
669.95	7.017
670.14	7.012
670.33	7.025
670.51	7.053
670.70	7.071
670.89	7.098
671.08	7.101
671.26	7.104
671.45	7.100
671.64	7.098
671.82	7.146
672.01	7.163
672.20	7.166
672.39	7.175
672.57	7.181
672.76	7.181
672.95	7.167
673.13	7.178
673.32	7.194
673.51	7.205
673.70	7.211
673.88	7.205
674.07	7.225
674.26	7.251
674.44	7.257
674.63	7.241
674.82	7.244
675.00	7.245
675.19	7.256
675.38	7.245
675.56	7.292
675.75	7.303
675.94	7.307
676.12	7.283
676.31	7.292
676.50	7.302
676.69	7.357
676.87	7.374
677.06	7.387
677.25	7.393
677.43	7.422
677.62	7.375
677.81	7.380
677.99	7.409
678.18	7.423
678.37	7.431
678.55	7.427
678.74	7.417
678.93	7.422
679.11	7.433
679.30	7.427
679.48	7.432
679.67	7.459
679.86	7.465
680.04	7.452
680.23	7.465
680.42	7.471
680.60	7.478
680.79	7.489
680.98	7.487
681.16	7.481
681.35	7.504
681.54	7.472
681.72	7.473
681.91	7.488
682.10	7.512
682.28	7.530
682.47	7.526
682.65	7.551
682.84	7.554
683.03	7.561
683.21	7.576
683.40	7.568
683.59	7.601
683.77	7.610
683.96	7.599
684.14	7.592
684.33	7.587
684.52	7.632
684.70	7.623
684.89	7.626
685.07	7.623
685.26	7.668
685.45	7.686
685.63	7.689
685.82	7.726
686.00	7.762
686.19	7.796
686.38	7.802
686.56	7.803
686.75	7.811
686.93	7.815
687.12	7.837
687.31	7.817
687.49	7.826
687.68	7.837
687.86	7.824
688.05	7.806
688.24	7.781
688.42	7.784
688.61	7.753
688.79	7.762
688.98	7.763
689.17	7.765
689.35	7.780
689.54	7.787
689.72	7.799
689.91	7.797
690.09	7.819
690.28	7.843
690.47	7.834
690.65	7.880
690.84	7.894
691.02	7.903
691.21	7.896
691.39	7.918
691.58	7.943
691.76	7.955
691.95	7.947
692.14	7.957
692.32	7.963
692.51	8.004
692.69	8.005
692.88	7.984
693.06	7.991
693.25	8.010
693.43	8.006
693.62	8.029
693.81	8.006
693.99	8.043
694.18	8.042
694.36	8.023
694.55	8.028
694.73	8.013
694.92	8.063
695.10	8.024
695.29	8.039
695.47	8.035
695.66	8.036
695.84	8.091
696.03	8.099
696.21	8.121
696.40	8.156
696.59	8.175
696.77	8.179
696.96	8.159
697.14	8.223
697.33	8.262
697.51	8.287
697.70	8.269
697.88	8.295
698.07	8.301
698.25	8.282
698.44	8.297
698.62	8.270
698.81	8.271
698.99	8.306
699.18	8.290
699.36	8.258
699.55	8.251
699.73	8.222
699.92	8.192
700.10	8.187
700.29	8.212
700.47	8.199
700.66	8.232
700.84	8.252
701.03	8.236
701.21	8.249
701.40	8.272
701.58	8.279
701.77	8.342
701.95	8.366
702.13	8.375
702.32	8.400
702.50	8.439
702.69	8.433
702.87	8.418
703.06	8.439
703.24	8.444
703.43	8.458
703.61	8.477
703.80	8.483
703.98	8.454
704.17	8.479
704.35	8.439
704.54	8.417
704.72	8.421
704.90	8.464
705.09	8.455
705.27	8.491
705.46	8.523
705.64	8.500
705.83	8.467
706.01	8.511
706.20	8.499
706.38	8.529
706.56	8.523
706.75	8.516
706.93	8.485
707.12	8.480
707.30	8.479
707.49	8.473
707.67	8.531
707.86	8.571
708.04	8.584
708.22	8.586
708.41	8.599
708.59	8.638
708.78	8.635
708.96	8.689
709.14	8.715
709.33	8.733
709.51	8.730
709.70	8.723
709.88	8.721
710.07	8.751
710.25	8.797
710.43	8.784
710.62	8.783
710.80	8.803
710.99	8.809
711.17	8.810
711.35	8.800
711.54	8.788
711.72	8.790
711.91	8.816
712.09	8.811
712.27	8.805
712.46	8.830
712.64	8.833
712.83	8.853
713.01	8.847
713.19	8.852
713.38	8.892
713.56	8.915
713.75	8.931
713.93	8.932
714.11	8.935
714.30	8.937
714.48	8.944
714.66	8.956
714.85	8.979
715.03	9.015
715.22	9.020
715.40	9.013
715.58	9.033
715.77	9.055
715.95	9.063
716.13	9.074
716.32	9.073
716.50	9.052
716.68	9.050
716.87	9.048
717.05	9.028
717.24	9.050
717.42	9.065
717.60	9.065
717.79	9.058
717.97	9.058
718.15	9.045
718.34	9.056
718.52	9.111
718.70	9.120
718.89	9.124
719.07	9.098
719.25	9.112
719.44	9.111
719.62	9.132
719.80	9.148
719.99	9.132
720.17	9.160
720.35	9.183
720.54	9.163
720.72	9.164
720.90	9.165
721.09	9.210
721.27	9.238
721.45	9.204
721.64	9.209
721.82	9.203
722.00	9.246
722.19	9.254
722.37	9.246
722.55	9.292
722.74	9.344
722.92	9.390
723.10	9.408
723.28	9.425
723.47	9.480
723.65	9.511
723.83	9.524
724.02	9.538
724.20	9.559
724.38	9.558
724.57	9.536
724.75	9.548
724.93	9.533
725.11	9.528
725.30	9.480
725.48	9.477
725.66	9.458
725.85	9.468
726.03	9.440
726.21	9.475
726.39	9.476
726.58	9.532
726.76	9.520
726.94	9.507
727.13	9.515
727.31	9.546
727.49	9.598
727.67	9.621
727.86	9.648
728.04	9.708
728.22	9.640
728.40	9.716
728.59	9.699
728.77	9.711
728.95	9.764
729.13	9.786
729.32	9.805
729.50	9.773
729.68	9.779
729.86	9.783
730.05	9.781
730.23	9.840
730.41	9.791
730.59	9.784
730.78	9.841
730.96	9.816
731.14	9.853
731.32	9.915
731.51	9.910
731.69	9.958
731.87	9.945
732.05	9.914
732.24	9.946
732.42	9.982
732.60	9.995
732.78	9.930
732.97	9.929
733.15	9.884
733.33	9.836
733.51	9.863
733.69	9.800
733.88	9.824
734.06	9.868
734.24	9.831
734.42	9.837
734.60	9.817
734.79	9.843
734.97	9.890
735.15	9.929
735.33	9.957
735.52	9.959
735.70	9.994
735.88	10.001
736.06	10.011
736.24	10.016
736.43	10.061
736.61	10.108
736.79	10.114
736.97	10.094
737.15	10.066
737.34	10.032
737.52	10.027
737.70	10.069
737.88	10.086
738.06	10.089
738.24	10.157
738.43	10.107
738.61	10.121
738.79	10.153
738.97	10.200
739.15	10.194
739.33	10.222
739.52	10.230
739.70	10.201
739.88	10.173
740.06	10.155
740.24	10.110
740.42	10.119
740.61	10.100
740.79	10.125
740.97	10.095
741.15	10.155
741.33	10.169
741.51	10.202
741.70	10.212
741.88	10.252
742.06	10.296
742.24	10.309
742.42	10.323
742.60	10.384
742.78	10.328
742.97	10.333
743.15	10.337
743.33	10.376
743.51	10.365
743.69	10.397
743.87	10.411
744.05	10.438
744.24	10.454
744.42	10.496
744.60	10.457
744.78	10.514
744.96	10.563
745.14	10.583
745.32	10.598
745.50	10.609
745.69	10.611
745.87	10.623
746.05	10.565
746.23	10.591
746.41	10.564
746.59	10.568
746.77	10.580
746.95	10.551
747.13	10.525
747.32	10.473
747.50	10.505
747.68	10.522
747.86	10.551
748.04	10.605
748.22	10.604
748.40	10.694
748.58	10.716
748.76	10.721
748.94	10.768
749.13	10.809
749.31	10.866
749.49	10.876
749.67	10.923
749.85	10.957
750.03	11.012
750.21	11.028
750.39	10.965
750.57	10.971
750.75	10.986
750.93	10.982
751.11	10.987
751.30	10.949
751.48	10.982
751.66	10.961
751.84	10.899
752.02	10.869
752.20	10.900
752.38	10.949
752.56	10.984
752.74	10.986
752.92	10.966
753.10	10.982
753.28	10.974
753.46	10.916
753.64	10.870
753.82	10.883
754.00	10.855
754.18	10.831
754.37	10.833
754.55	10.841
754.73	10.819
754.91	10.873
755.09	10.849
755.27	10.913
755.45	10.924
755.63	10.967
755.81	10.989
755.99	11.033
756.17	11.038
756.35	11.011
756.53	10.981
756.71	11.030
756.89	11.011
757.07	11.012
757.25	11.025
757.43	11.032
757.61	10.980
757.79	10.960
757.97	10.907
758.15	10.965
758.33	11.041
758.51	11.125
758.69	11.145
758.87	11.154
759.05	11.159
759.23	11.165
759.41	11.246
759.59	11.314
759.77	11.348
759.95	11.413
760.13	11.358
760.31	11.331
760.49	11.319
760.67	11.321
760.85	11.334
761.03	11.365
761.21	11.418
761.39	11.408
761.57	11.441
761.75	11.484
761.93	11.489
762.11	11.522
762.29	11.494
762.47	11.485
762.65	11.466
762.83	11.480
763.01	11.505
763.19	11.513
763.37	11.519
763.55	11.564
763.73	11.561
763.91	11.558
764.09	11.575
764.27	11.607
764.45	11.610
764.63	11.635
764.81	11.641
764.99	11.628
765.16	11.597
765.34	11.596
765.52	11.593
765.70	11.582
765.88	11.570
766.06	11.554
766.24	11.544
766.42	11.514
766.60	11.507
766.78	11.494
766.96	11.519
767.14	11.525
767.32	11.551
767.50	11.517
767.68	11.503
767.86	11.555
768.03	11.613
768.21	11.646
768.39	11.674
768.57	11.700
768.75	11.754
768.93	11.775
769.11	11.813
769.29	11.799
769.47	11.784
769.65	11.903
769.83	11.903
770.01	11.940
770.19	11.967
770.36	12.030
770.54	12.007
770.72	11.988
770.90	11.984
771.08	12.042
771.26	12.067
771.44	12.133
771.62	12.063
771.80	12.024
771.98	11.929
772.15	11.956
772.33	11.982
772.51	12.013
772.69	11.994
772.87	12.051
773.05	11.933
773.23	11.936
773.41	11.939
773.58	11.892
773.76	12.017
773.94	12.051
774.12	12.014
774.30	12.030
774.48	12.037
774.66	12.041
774.84	11.945
775.01	12.045
775.19	12.103
775.37	12.090
775.55	12.184
775.73	12.125
775.91	12.166
776.09	12.205
776.26	12.173
776.44	12.210
776.62	12.314
776.80	12.341
776.98	12.322
777.16	12.255
777.34	12.365
777.51	12.307
777.69	12.336
777.87	12.320
778.05	12.265
778.23	12.287
778.41	12.205
778.58	12.172
778.76	12.213
778.94	12.232
779.12	12.320
779.30	12.230
779.48	12.297
779.65	12.268
779.83	12.311
780.01	12.372
780.19	12.379
780.37	12.480
780.55	12.462
780.72	12.487
780.90	12.477
781.08	12.500
781.26	12.642
781.44	12.645
781.61	12.700
781.79	12.702
781.97	12.679
782.15	12.662
782.33	12.564
782.50	12.520
782.68	12.561
782.86	12.571
783.04	12.458
783.22	12.369
783.39	12.358
783.57	12.295
783.75	12.309
783.93	12.359
784.11	12.418
784.28	12.355
784.46	12.488
784.64	12.453
784.82	12.459
784.99	12.539
785.17	12.470
785.35	12.509
785.53	12.550
785.71	12.554
785.88	12.501
786.06	12.544
786.24	12.757
786.42	12.693
786.59	12.684
786.77	12.683
786.95	12.653
787.13	12.726
787.30	12.767
787.48	12.824
787.66	12.789
787.84	12.821
788.01	12.774
788.19	12.848
788.37	12.881
788.55	12.976
788.72	13.045
788.90	13.086
789.08	13.117
789.26	13.062
789.43	13.089
789.61	13.113
789.79	13.112
789.97	13.144
790.14	13.099
790.32	13.179
790.50	13.088
790.68	13.042
790.85	13.037
791.03	13.050
791.21	13.161
791.38	13.147
791.56	13.180
791.74	13.258
791.92	13.165
792.09	13.093
792.27	12.959
792.45	13.007
792.62	12.978
792.80	12.957
792.98	12.856
793.16	12.779
793.33	12.673
793.51	12.659
793.69	12.661
793.86	12.733
794.04	12.754
794.22	12.862
794.39	12.900
794.57	12.971
794.75	13.053
794.93	13.202
795.10	13.173
795.28	13.289
795.46	13.306
795.63	13.294
795.81	13.403
795.99	13.403
796.16	13.364
796.34	13.380
796.52	13.368
796.69	13.326
796.87	13.352
797.05	13.399
797.22	13.353
797.40	13.472
797.58	13.483
797.75	13.516
797.93	13.519
798.11	13.645
798.28	13.668
798.46	13.679
798.64	13.701
798.81	13.634
798.99	13.600
799.17	13.622
799.34	13.519
799.52	13.560
799.70	13.475
799.87	13.547
800.05	13.442
800.22	13.502
800.40	13.504
800.58	13.491
800.75	13.602
800.93	13.672
801.11	13.685
801.28	13.821
801.46	13.692
801.63	13.828
801.81	13.851
801.99	13.917
802.16	13.877
802.34	14.014
802.52	14.078
802.69	14.010
802.87	13.958
803.04	14.099
803.22	14.054
803.40	14.133
803.57	14.035
803.75	14.009
803.93	13.935
804.10	13.951
804.28	13.891
804.45	13.911
804.63	13.994
804.81	14.078
804.98	14.041
805.16	14.078
805.33	14.173
805.51	14.295
805.68	14.364
805.86	14.402
806.04	14.292
806.21	14.325
806.39	14.359
806.56	14.261
806.74	14.241
806.92	14.274
807.09	14.190
807.27	14.141
807.44	14.013
807.62	14.012
807.79	14.082
807.97	14.234
808.15	14.197
808.32	14.150
808.50	14.246
808.67	14.241
808.85	14.199
809.02	14.139
809.20	14.070
809.38	14.107
809.55	14.095
809.73	14.006
809.90	13.943
810.08	13.921
810.25	13.952
810.43	13.852
810.60	13.832
810.78	13.742
810.95	13.871
811.13	14.078
811.31	14.005
811.48	14.035
811.66	14.211
811.83	14.303
812.01	14.359
812.18	14.328
812.36	14.280
812.53	14.274
812.71	14.405
812.88	14.399
813.06	14.209
813.23	14.309
813.41	14.387
813.58	14.290
813.76	14.200
813.93	14.214
814.11	14.238
814.28	14.390
814.46	14.532
814.63	14.521
814.81	14.553
814.98	14.639
815.16	14.639
815.33	14.485
815.51	14.587
815.68	14.579
815.86	14.580
816.03	14.541
816.21	14.468
816.38	14.359
816.56	14.407
816.73	14.430
816.91	14.482
817.08	14.504
817.26	14.618
817.43	14.645
817.61	14.771
817.78	14.758
817.96	14.763
818.13	14.872
818.31	14.925
818.48	14.899
818.66	14.945
818.83	14.846
819.01	14.774
819.18	14.747
819.36	14.651
819.53	14.563
819.70	14.581
819.88	14.772
820.05	14.819
820.23	14.944
820.40	14.934
820.58	14.828
820.75	14.996
820.93	15.020
821.10	15.115
821.28	15.254
821.45	15.319
821.62	15.425
821.80	15.411
821.97	15.405
822.15	15.377
822.32	15.441
822.50	15.632
822.67	15.723
822.84	15.805
823.02	15.752
823.19	15.641
823.37	15.505
823.54	15.400
823.72	15.301
823.89	15.210
824.06	15.164
824.24	15.126
824.41	15.063
824.59	15.002
824.76	14.938
824.94	14.878
825.11	14.833
825.28	14.816
825.46	14.799
825.63	14.800
825.81	14.838
825.98	14.863
826.15	14.891
826.33	14.926
826.50	14.943
826.68	14.979
826.85	15.028
827.02	15.059
827.20	15.158
827.37	15.233
827.54	15.370
827.72	15.461
827.89	15.541
828.07	15.599
828.24	15.597
828.41	15.594
828.59	15.567
828.76	15.543
828.94	15.527
829.11	15.484
829.28	15.449
829.46	15.364
829.63	15.351
829.80	15.294
829.98	15.215
830.15	15.191
830.32	15.183
830.50	15.198
830.67	15.246
830.85	15.256
831.02	15.277
831.19	15.296
831.37	15.407
831.54	15.399
831.71	15.453
831.89	15.567
832.06	15.649
832.23	15.662
832.41	15.653
832.58	15.630
832.75	15.743
832.93	15.736
833.10	15.777
833.27	15.800
833.45	15.802
833.62	15.793
833.79	15.796
833.97	15.833
834.14	16.069
834.31	16.163
834.49	16.279
834.66	16.239
834.83	16.291
835.01	16.227
835.18	16.215
835.35	16.157
835.52	16.101
835.70	16.062
835.87	16.053
836.04	15.965
836.22	15.895
836.39	15.804
836.56	15.788
836.74	15.722
836.91	15.731
837.08	15.661
837.25	15.706
837.43	15.760
837.60	15.750
837.77	15.639
837.95	15.671
838.12	15.681
838.29	15.662
838.46	15.628
838.64	15.585
838.81	15.548
838.98	15.632
839.16	15.557
839.33	15.485
839.50	15.358
839.67	15.710
839.85	15.630
840.02	15.870
840.19	15.836
840.36	16.101
840.54	16.326
840.71	16.344
840.88	16.389
841.06	16.378
841.23	16.510
841.40	16.722
841.57	16.591
841.75	16.604
841.92	16.381
842.09	16.452
842.26	16.228
842.44	16.140
842.61	16.191
842.78	16.181
842.95	16.285
843.12	16.267
843.30	16.169
843.47	16.056
843.64	16.017
843.81	16.231
843.99	16.176
844.16	16.448
844.33	16.490
844.50	16.522
844.68	16.513
844.85	16.354
845.02	16.403
845.19	16.413
845.36	16.302
845.54	16.235
845.71	16.116
845.88	15.942
846.05	15.587
846.22	15.653
846.40	15.949
846.57	16.086
846.74	15.967
846.91	15.821
847.08	15.933
847.26	16.133
847.43	16.361
847.60	16.353
847.77	16.651
847.94	17.030
848.12	16.985
848.29	16.750
848.46	16.656
848.63	16.720
848.80	16.645
848.98	16.710
849.15	16.872
849.32	17.001
849.49	16.906
849.66	17.188
849.83	16.760
850.01	16.984
850.18	16.501
850.35	16.560
850.52	16.593
850.69	16.687
850.86	16.623
851.04	16.265
851.21	15.990
851.38	15.776
851.55	15.591
851.72	15.641
851.89	15.512
852.06	15.712
852.24	15.619
852.41	15.943
852.58	15.857
852.75	15.990
852.92	16.342
853.09	16.482
853.26	16.821
853.44	16.741
853.61	17.142
853.78	16.990
853.95	16.920
854.12	16.919
854.29	16.908
854.46	17.108
854.64	17.007
854.81	16.972
854.98	17.067
855.15	17.171
855.32	17.158
855.49	16.643
855.66	16.338
855.83	16.528
856.00	16.521
856.18	16.694
856.35	16.590
856.52	16.509
856.69	16.718
856.86	16.475
857.03	16.620
857.20	16.801
857.37	17.132
857.54	17.578
857.71	17.658
857.89	18.015
858.06	17.660
858.23	17.517
858.40	17.101
858.57	16.953
858.74	17.112
858.91	16.900
859.08	16.995
859.25	17.098
859.42	17.118
859.59	17.344
859.76	16.971
859.94	17.092
860.11	17.276
860.28	17.791
860.45	17.945
860.62	17.785
860.79	17.582
860.96	17.527
861.13	17.070
861.30	17.142
861.47	16.984
861.64	17.136
861.81	16.864
861.98	16.468
862.15	16.663
862.32	16.509
862.49	16.710
862.66	17.135
862.83	16.685
863.01	17.259
863.18	16.861
863.35	16.867
863.52	17.126
863.69	17.282
863.86	17.627
864.03	17.460
864.20	17.540
864.37	17.309
864.54	17.105
864.71	17.621
864.88	17.244
865.05	17.387
865.22	17.655
865.39	17.385
865.56	17.533
865.73	17.609
865.90	17.792
866.07	17.775
866.24	18.096
866.41	18.226
866.58	17.768
866.75	17.995
866.92	17.929
867.09	17.648
867.26	17.919
867.43	17.862
867.60	17.754
867.77	17.543
867.94	17.257
868.11	17.173
868.28	17.259
868.45	17.505
868.62	17.671
868.79	17.651
868.96	17.800
869.13	17.321
869.30	17.499
869.47	17.582
869.64	17.358
869.81	17.661
869.98	17.755
870.15	17.901
870.32	17.766
870.49	17.073
870.66	17.675
870.83	17.496
871.00	17.824
871.16	17.799
871.33	17.807
871.50	17.801
871.67	17.862
871.84	17.882
872.01	17.902
872.18	17.924
872.35	18.695
872.52	18.251
872.69	18.131
872.86	18.121
873.03	18.192
873.20	18.476
873.37	18.665
873.54	18.670
873.71	18.426
873.88	18.444
874.05	18.591
874.21	18.330
874.38	18.166
874.55	18.376
874.72	18.190
874.89	18.169
875.06	17.903
875.23	18.281
875.40	18.430
875.57	18.793
875.74	18.652
875.91	18.778
876.08	18.952
876.24	19.185
876.41	19.008
876.58	19.164
876.75	18.909
876.92	18.878
877.09	18.774
877.26	18.564
877.43	18.404
877.60	18.403
877.77	18.434
877.93	18.397
878.10	18.592
878.27	18.910
878.44	18.980
878.61	19.177
878.78	19.112
878.95	18.956
879.12	19.121
879.28	19.245
879.45	19.098
879.62	19.058
879.79	18.714
879.96	18.826
880.13	18.522
880.30	18.813
880.47	18.746
880.63	18.930
880.80	18.964
880.97	18.864
881.14	18.829
881.31	19.127
881.48	19.119
881.65	19.346
881.81	19.347
881.98	19.679
882.15	19.675
882.32	19.768
882.49	19.778
882.66	19.760
882.82	19.664
882.99	19.548
883.16	19.441
883.33	19.370
883.50	19.294
883.67	19.250
883.83	19.156
884.00	19.073
884.17	18.997
884.34	18.935
884.51	18.862
884.68	18.814
884.84	18.784
885.01	18.758
885.18	18.735
885.35	18.721
885.52	18.678
885.68	18.680
885.85	18.675
886.02	18.583
886.19	18.391
886.36	18.666
886.53	18.915
886.69	18.513
>>>>>End Spectral Data<<<<<
