OOIBase32 Version 2.0.6.5 Data File
++++++++++++++++++++++++++++++++++++
Date: 03-24-2011, 10:56:19
User: Valued Ocean Optics Customer
Spectrometer Serial Number: USB4C01507
Spectrometer Channel: Master
Integration Time (msec): 46
Spectra Averaged: 30
Boxcar Smoothing: 5
Correct for Electrical Dark: Enabled
Time Normalized: Disabled
Dual-beam Reference: Disabled
Reference Channel: Master
Temperature: Not acquired
Spectrometer Type: S4000
ADC Type: USB4000
Number of Pixels in File: 3648
Graph Title: 
>>>>>Begin Spectral Data<<<<<
179.17	1208.444
179.39	3203.926
179.60	-55.939
179.82	68.586
180.03	506.341
180.24	269.748
180.46	75.864
180.67	-295.031
180.89	274.258
181.10	-130.432
181.31	131.524
181.53	-68.509
181.74	58.228
181.96	323.260
182.17	103.725
182.39	76.422
182.60	89.702
182.81	29.639
183.03	229.543
183.24	-615.349
183.46	39.548
183.67	29.802
183.88	29.014
184.10	24.335
184.31	20.542
184.53	35.725
184.74	35.315
184.96	33.969
185.17	27.931
185.38	31.593
185.60	27.900
185.81	25.830
186.03	34.281
186.24	28.534
186.45	30.466
186.67	28.533
186.88	22.930
187.10	29.165
187.31	24.755
187.52	26.946
187.74	21.778
187.95	21.433
188.17	9.319
188.38	7.105
188.59	7.245
188.81	9.569
189.02	9.723
189.24	9.251
189.45	9.871
189.66	12.581
189.88	0.503
190.09	0.324
190.30	9.723
190.52	22.852
190.73	22.456
190.95	21.562
191.16	12.958
191.37	11.872
191.59	8.269
191.80	6.040
192.02	2.053
192.23	10.534
192.44	3.429
192.66	-5.038
192.87	-13.480
193.08	-12.021
193.30	-17.423
193.51	-4.851
193.73	-6.350
193.94	1.223
194.15	2.723
194.37	11.025
194.58	11.316
194.79	11.478
195.01	9.829
195.22	9.296
195.44	6.566
195.65	11.360
195.86	5.469
196.08	4.577
196.29	6.255
196.50	10.199
196.72	9.780
196.93	11.232
197.14	13.331
197.36	21.027
197.57	17.613
197.79	19.763
198.00	21.583
198.21	23.434
198.43	28.129
198.64	29.344
198.85	24.717
199.07	19.546
199.28	22.650
199.49	23.785
199.71	23.700
199.92	31.609
200.13	29.451
200.35	28.788
200.56	25.451
200.78	20.175
200.99	13.427
201.20	13.340
201.42	14.606
201.63	7.328
201.84	7.336
202.06	5.926
202.27	2.573
202.48	4.249
202.70	-1.539
202.91	1.109
203.12	-1.408
203.34	1.728
203.55	2.436
203.76	5.988
203.98	10.125
204.19	9.450
204.40	10.787
204.62	11.255
204.83	9.441
205.04	12.977
205.26	14.048
205.47	17.480
205.68	17.736
205.90	15.284
206.11	14.371
206.32	12.312
206.54	11.135
206.75	9.607
206.96	8.980
207.18	13.902
207.39	18.283
207.60	20.559
207.82	22.420
208.03	22.304
208.24	22.268
208.45	24.666
208.67	26.594
208.88	26.936
209.09	28.944
209.31	29.405
209.52	26.954
209.73	24.347
209.95	24.983
210.16	24.651
210.37	24.021
210.59	27.140
210.80	24.985
211.01	25.026
211.23	26.969
211.44	22.952
211.65	22.981
211.86	24.934
212.08	26.062
212.29	22.747
212.50	19.764
212.72	16.570
212.93	13.647
213.14	13.584
213.36	10.971
213.57	10.465
213.78	13.540
213.99	17.178
214.21	17.692
214.42	18.532
214.63	19.858
214.85	18.251
215.06	22.633
215.27	23.173
215.49	21.325
215.70	22.994
215.91	21.594
216.12	20.668
216.34	15.610
216.55	14.811
216.76	12.827
216.98	10.806
217.19	15.427
217.40	14.216
217.61	14.746
217.83	16.088
218.04	15.271
218.25	14.420
218.47	13.514
218.68	15.043
218.89	13.621
219.10	14.092
219.32	13.186
219.53	12.424
219.74	13.637
219.95	13.433
220.17	13.660
220.38	14.673
220.59	13.381
220.81	13.230
221.02	13.989
221.23	13.968
221.44	13.422
221.66	15.125
221.87	14.785
222.08	15.057
222.29	15.183
222.51	15.122
222.72	13.949
222.93	16.135
223.14	16.294
223.36	15.734
223.57	15.989
223.78	15.882
223.99	15.409
224.21	15.418
224.42	13.854
224.63	13.397
224.84	12.702
225.06	13.475
225.27	13.229
225.48	13.169
225.69	13.596
225.91	13.548
226.12	13.482
226.33	14.261
226.54	14.107
226.76	14.316
226.97	14.258
227.18	14.028
227.39	13.884
227.61	13.809
227.82	13.835
228.03	13.700
228.24	13.648
228.46	13.783
228.67	13.652
228.88	13.635
229.09	13.506
229.31	13.534
229.52	13.671
229.73	13.559
229.94	13.519
230.16	13.494
230.37	13.679
230.58	13.515
230.79	13.228
231.00	13.066
231.22	13.091
231.43	13.518
231.64	12.998
231.85	12.933
232.07	13.122
232.28	12.839
232.49	12.699
232.70	12.265
232.91	12.468
233.13	12.699
233.34	12.736
233.55	12.901
233.76	12.562
233.98	12.891
234.19	12.679
234.40	12.578
234.61	12.776
234.82	12.809
235.04	12.656
235.25	12.774
235.46	12.214
235.67	12.196
235.88	11.959
236.10	12.001
236.31	11.817
236.52	12.253
236.73	12.267
236.94	12.363
237.16	12.145
237.37	12.403
237.58	12.009
237.79	12.344
238.01	12.019
238.22	11.999
238.43	11.962
238.64	12.268
238.85	11.775
239.06	11.590
239.28	11.118
239.49	11.383
239.70	11.207
239.91	11.397
240.12	11.143
240.34	11.132
240.55	11.012
240.76	11.029
240.97	10.907
241.18	10.839
241.40	10.805
241.61	10.929
241.82	10.806
242.03	10.849
242.24	10.725
242.45	10.855
242.67	10.882
242.88	10.970
243.09	10.826
243.30	10.813
243.51	11.156
243.73	11.257
243.94	11.256
244.15	11.382
244.36	11.413
244.57	11.594
244.78	11.463
245.00	11.128
245.21	10.886
245.42	10.737
245.63	10.609
245.84	10.445
246.05	10.389
246.27	10.406
246.48	10.376
246.69	10.245
246.90	10.214
247.11	10.067
247.32	10.104
247.54	10.121
247.75	10.110
247.96	10.089
248.17	10.063
248.38	10.034
248.59	9.881
248.81	9.807
249.02	9.968
249.23	9.716
249.44	9.830
249.65	9.831
249.86	9.379
250.07	9.525
250.29	9.546
250.50	9.318
250.71	9.267
250.92	9.238
251.13	9.139
251.34	9.191
251.55	9.337
251.77	9.429
251.98	9.306
252.19	9.612
252.40	9.480
252.61	9.458
252.82	9.431
253.03	9.430
253.25	9.417
253.46	9.284
253.67	9.314
253.88	9.211
254.09	9.113
254.30	9.251
254.51	9.203
254.73	9.315
254.94	9.486
255.15	9.904
255.36	9.785
255.57	9.551
255.78	9.647
255.99	9.501
256.20	9.644
256.42	9.674
256.63	9.496
256.84	9.379
257.05	9.374
257.26	9.194
257.47	8.920
257.68	8.982
257.89	9.053
258.10	8.925
258.32	8.851
258.53	8.657
258.74	8.565
258.95	8.617
259.16	8.593
259.37	8.540
259.58	8.487
259.79	8.567
260.00	8.561
260.22	8.599
260.43	8.668
260.64	8.633
260.85	8.707
261.06	8.812
261.27	8.798
261.48	8.791
261.69	8.796
261.90	8.766
262.12	8.672
262.33	8.620
262.54	8.514
262.75	8.411
262.96	8.349
263.17	8.452
263.38	8.370
263.59	8.417
263.80	8.378
264.01	8.565
264.22	8.645
264.44	8.587
264.65	8.480
264.86	8.476
265.07	8.547
265.28	8.522
265.49	8.482
265.70	8.426
265.91	8.396
266.12	8.472
266.33	8.351
266.54	8.450
266.75	8.518
266.97	8.573
267.18	8.613
267.39	8.588
267.60	8.640
267.81	8.607
268.02	8.639
268.23	8.653
268.44	8.529
268.65	8.544
268.86	8.466
269.07	8.467
269.28	8.382
269.49	8.414
269.70	8.327
269.92	8.263
270.13	8.198
270.34	8.222
270.55	8.083
270.76	8.124
270.97	8.162
271.18	8.151
271.39	8.013
271.60	8.060
271.81	8.000
272.02	7.997
272.23	8.060
272.44	8.052
272.65	8.008
272.86	8.022
273.07	8.040
273.28	7.983
273.49	7.908
273.71	7.868
273.92	7.932
274.13	7.800
274.34	7.756
274.55	7.765
274.76	7.656
274.97	7.684
275.18	7.664
275.39	7.698
275.60	7.678
275.81	7.795
276.02	7.864
276.23	7.809
276.44	7.798
276.65	7.930
276.86	7.898
277.07	8.029
277.28	7.990
277.49	8.146
277.70	8.041
277.91	8.057
278.12	7.932
278.33	7.834
278.54	7.845
278.75	7.902
278.96	7.828
279.17	7.750
279.39	7.675
279.60	7.637
279.81	7.499
280.02	7.511
280.23	7.470
280.44	7.506
280.65	7.618
280.86	7.549
281.07	7.549
281.28	7.620
281.49	7.492
281.70	7.517
281.91	7.537
282.12	7.545
282.33	7.586
282.54	7.586
282.75	7.549
282.96	7.548
283.17	7.532
283.38	7.557
283.59	7.424
283.80	7.477
284.01	7.355
284.22	7.289
284.43	7.289
284.64	7.209
284.85	7.217
285.06	7.326
285.27	7.304
285.48	7.287
285.69	7.265
285.90	7.326
286.11	7.366
286.32	7.446
286.53	7.450
286.74	7.462
286.95	7.460
287.16	7.476
287.37	7.363
287.58	7.288
287.79	7.260
288.00	7.197
288.21	7.061
288.42	7.020
288.63	7.032
288.84	7.101
289.05	7.075
289.26	7.089
289.47	7.018
289.68	6.967
289.89	6.915
290.10	6.868
290.31	6.836
290.51	6.815
290.72	6.803
290.93	6.815
291.14	6.784
291.35	6.706
291.56	6.720
291.77	6.729
291.98	6.689
292.19	6.742
292.40	6.841
292.61	6.855
292.82	6.851
293.03	6.874
293.24	6.807
293.45	6.790
293.66	6.874
293.87	6.823
294.08	6.776
294.29	6.851
294.50	6.764
294.71	6.700
294.92	6.695
295.13	6.777
295.34	6.732
295.55	6.671
295.76	6.570
295.96	6.520
296.17	6.490
296.38	6.535
296.59	6.534
296.80	6.536
297.01	6.572
297.22	6.616
297.43	6.590
297.64	6.598
297.85	6.620
298.06	6.632
298.27	6.656
298.48	6.695
298.69	6.646
298.90	6.616
299.11	6.663
299.32	6.628
299.53	6.568
299.73	6.583
299.94	6.626
300.15	6.589
300.36	6.635
300.57	6.604
300.78	6.529
300.99	6.532
301.20	6.487
301.41	6.537
301.62	6.514
301.83	6.532
302.04	6.431
302.25	6.335
302.45	6.342
302.66	6.281
302.87	6.234
303.08	6.239
303.29	6.234
303.50	6.298
303.71	6.260
303.92	6.190
304.13	6.163
304.34	6.220
304.55	6.235
304.76	6.272
304.96	6.273
305.17	6.257
305.38	6.219
305.59	6.271
305.80	6.217
306.01	6.215
306.22	6.266
306.43	6.256
306.64	6.203
306.85	6.178
307.06	6.169
307.26	6.146
307.47	6.095
307.68	6.167
307.89	6.090
308.10	6.126
308.31	6.096
308.52	6.098
308.73	6.093
308.94	6.111
309.14	6.095
309.35	6.006
309.56	6.014
309.77	6.042
309.98	6.010
310.19	6.045
310.40	5.996
310.61	5.983
310.82	5.972
311.02	5.947
311.23	5.927
311.44	5.915
311.65	5.940
311.86	5.935
312.07	5.933
312.28	5.891
312.49	5.857
312.69	5.872
312.90	5.855
313.11	5.795
313.32	5.805
313.53	5.838
313.74	5.826
313.95	5.777
314.16	5.772
314.36	5.796
314.57	5.856
314.78	5.850
314.99	5.828
315.20	5.830
315.41	5.886
315.62	5.823
315.82	5.807
316.03	5.788
316.24	5.840
316.45	5.872
316.66	5.812
316.87	5.815
317.08	5.751
317.28	5.772
317.49	5.773
317.70	5.723
317.91	5.750
318.12	5.730
318.33	5.741
318.54	5.704
318.74	5.624
318.95	5.683
319.16	5.668
319.37	5.732
319.58	5.677
319.79	5.647
319.99	5.666
320.20	5.680
320.41	5.658
320.62	5.659
320.83	5.645
321.04	5.690
321.24	5.654
321.45	5.659
321.66	5.583
321.87	5.627
322.08	5.670
322.29	5.647
322.49	5.643
322.70	5.627
322.91	5.612
323.12	5.657
323.33	5.618
323.54	5.586
323.74	5.531
323.95	5.539
324.16	5.502
324.37	5.456
324.58	5.466
324.79	5.437
324.99	5.413
325.20	5.481
325.41	5.440
325.62	5.502
325.83	5.532
326.03	5.521
326.24	5.530
326.45	5.558
326.66	5.539
326.87	5.520
327.07	5.493
327.28	5.474
327.49	5.447
327.70	5.417
327.91	5.386
328.11	5.362
328.32	5.378
328.53	5.395
328.74	5.354
328.95	5.364
329.15	5.391
329.36	5.466
329.57	5.484
329.78	5.481
329.99	5.525
330.19	5.471
330.40	5.459
330.61	5.466
330.82	5.397
331.03	5.366
331.23	5.387
331.44	5.349
331.65	5.267
331.86	5.285
332.07	5.223
332.27	5.205
332.48	5.235
332.69	5.216
332.90	5.242
333.10	5.310
333.31	5.301
333.52	5.250
333.73	5.273
333.94	5.272
334.14	5.243
334.35	5.244
334.56	5.219
334.77	5.185
334.97	5.180
335.18	5.096
335.39	5.044
335.60	5.071
335.80	5.051
336.01	5.033
336.22	5.033
336.43	5.033
336.64	5.021
336.84	4.994
337.05	4.973
337.26	4.974
337.47	5.040
337.67	5.071
337.88	5.021
338.09	5.039
338.30	5.048
338.50	5.102
338.71	5.097
338.92	5.134
339.13	5.168
339.33	5.226
339.54	5.224
339.75	5.199
339.96	5.150
340.16	5.150
340.37	5.187
340.58	5.186
340.79	5.136
340.99	5.117
341.20	5.040
341.41	5.042
341.62	4.999
341.82	5.010
342.03	4.915
342.24	4.878
342.44	4.898
342.65	4.862
342.86	4.800
343.07	4.771
343.27	4.816
343.48	4.831
343.69	4.813
343.90	4.821
344.10	4.773
344.31	4.829
344.52	4.928
344.72	4.925
344.93	4.905
345.14	4.950
345.35	4.970
345.55	4.977
345.76	4.994
345.97	4.996
346.18	4.959
346.38	5.015
346.59	4.990
346.80	4.971
347.00	4.969
347.21	4.995
347.42	5.028
347.62	4.985
347.83	4.918
348.04	4.879
348.25	4.877
348.45	4.891
348.66	4.871
348.87	4.910
349.07	4.864
349.28	4.857
349.49	4.814
349.70	4.768
349.90	4.761
350.11	4.780
350.32	4.768
350.52	4.786
350.73	4.777
350.94	4.772
351.14	4.763
351.35	4.772
351.56	4.738
351.76	4.718
351.97	4.699
352.18	4.750
352.39	4.741
352.59	4.799
352.80	4.775
353.01	4.792
353.21	4.778
353.42	4.737
353.63	4.702
353.83	4.724
354.04	4.738
354.25	4.721
354.45	4.661
354.66	4.687
354.87	4.653
355.07	4.633
355.28	4.611
355.49	4.621
355.69	4.654
355.90	4.663
356.11	4.686
356.31	4.722
356.52	4.742
356.73	4.816
356.93	4.807
357.14	4.815
357.35	4.803
357.55	4.811
357.76	4.778
357.97	4.735
358.17	4.744
358.38	4.726
358.59	4.716
358.79	4.726
359.00	4.689
359.21	4.681
359.41	4.634
359.62	4.625
359.83	4.598
360.03	4.617
360.24	4.664
360.44	4.680
360.65	4.650
360.86	4.627
361.06	4.607
361.27	4.587
361.48	4.584
361.68	4.616
361.89	4.627
362.10	4.655
362.30	4.607
362.51	4.587
362.72	4.576
362.92	4.632
363.13	4.624
363.33	4.610
363.54	4.640
363.75	4.637
363.95	4.645
364.16	4.661
364.37	4.663
364.57	4.695
364.78	4.697
364.98	4.691
365.19	4.623
365.40	4.646
365.60	4.643
365.81	4.639
366.02	4.620
366.22	4.617
366.43	4.593
366.63	4.581
366.84	4.557
367.05	4.560
367.25	4.534
367.46	4.557
367.66	4.556
367.87	4.599
368.08	4.574
368.28	4.599
368.49	4.589
368.69	4.564
368.90	4.561
369.11	4.613
369.31	4.595
369.52	4.627
369.72	4.604
369.93	4.582
370.14	4.566
370.34	4.547
370.55	4.505
370.75	4.514
370.96	4.544
371.17	4.575
371.37	4.530
371.58	4.550
371.78	4.521
371.99	4.529
372.20	4.510
372.40	4.474
372.61	4.482
372.81	4.493
373.02	4.480
373.23	4.453
373.43	4.438
373.64	4.456
373.84	4.422
374.05	4.425
374.25	4.442
374.46	4.461
374.67	4.451
374.87	4.467
375.08	4.463
375.28	4.466
375.49	4.476
375.69	4.470
375.90	4.457
376.11	4.464
376.31	4.452
376.52	4.468
376.72	4.476
376.93	4.494
377.13	4.488
377.34	4.483
377.55	4.492
377.75	4.518
377.96	4.482
378.16	4.492
378.37	4.504
378.57	4.540
378.78	4.524
378.98	4.509
379.19	4.503
379.40	4.480
379.60	4.487
379.81	4.474
380.01	4.437
380.22	4.432
380.42	4.417
380.63	4.414
380.83	4.371
381.04	4.352
381.24	4.344
381.45	4.344
381.66	4.361
381.86	4.363
382.07	4.353
382.27	4.366
382.48	4.360
382.68	4.351
382.89	4.338
383.09	4.352
383.30	4.349
383.50	4.346
383.71	4.330
383.91	4.352
384.12	4.339
384.32	4.325
384.53	4.317
384.73	4.342
384.94	4.328
385.15	4.342
385.35	4.361
385.56	4.373
385.76	4.373
385.97	4.398
386.17	4.380
386.38	4.398
386.58	4.407
386.79	4.439
386.99	4.422
387.20	4.434
387.40	4.403
387.61	4.422
387.81	4.398
388.02	4.429
388.22	4.432
388.43	4.423
388.63	4.399
388.84	4.436
389.04	4.413
389.25	4.427
389.45	4.412
389.66	4.430
389.86	4.405
390.07	4.407
390.27	4.363
390.48	4.354
390.68	4.361
390.89	4.394
391.09	4.372
391.30	4.376
391.50	4.376
391.71	4.397
391.91	4.388
392.12	4.409
392.32	4.410
392.53	4.419
392.73	4.416
392.94	4.403
393.14	4.388
393.35	4.386
393.55	4.372
393.75	4.366
393.96	4.348
394.16	4.352
394.37	4.318
394.57	4.324
394.78	4.351
394.98	4.355
395.19	4.341
395.39	4.328
395.60	4.323
395.80	4.322
396.01	4.323
396.21	4.350
396.42	4.342
396.62	4.354
396.83	4.347
397.03	4.334
397.23	4.315
397.44	4.335
397.64	4.352
397.85	4.361
398.05	4.365
398.26	4.352
398.46	4.328
398.67	4.341
398.87	4.318
399.08	4.316
399.28	4.307
399.48	4.309
399.69	4.292
399.89	4.282
400.10	4.271
400.30	4.261
400.51	4.271
400.71	4.290
400.92	4.287
401.12	4.310
401.32	4.292
401.53	4.297
401.73	4.298
401.94	4.312
402.14	4.317
402.35	4.330
402.55	4.330
402.75	4.320
402.96	4.318
403.16	4.319
403.37	4.303
403.57	4.357
403.78	4.358
403.98	4.376
404.18	4.386
404.39	4.348
404.59	4.329
404.80	4.348
405.00	4.355
405.21	4.370
405.41	4.356
405.61	4.377
405.82	4.365
406.02	4.379
406.23	4.370
406.43	4.358
406.63	4.402
406.84	4.433
407.04	4.431
407.25	4.450
407.45	4.432
407.65	4.440
407.86	4.420
408.06	4.393
408.27	4.361
408.47	4.368
408.67	4.362
408.88	4.345
409.08	4.313
409.29	4.318
409.49	4.293
409.69	4.291
409.90	4.289
410.10	4.315
410.31	4.328
410.51	4.346
410.71	4.324
410.92	4.316
411.12	4.324
411.33	4.331
411.53	4.314
411.73	4.306
411.94	4.337
412.14	4.334
412.34	4.310
412.55	4.324
412.75	4.324
412.96	4.335
413.16	4.349
413.36	4.346
413.57	4.337
413.77	4.344
413.97	4.367
414.18	4.362
414.38	4.358
414.59	4.365
414.79	4.347
414.99	4.350
415.20	4.372
415.40	4.391
415.60	4.384
415.81	4.382
416.01	4.374
416.21	4.375
416.42	4.353
416.62	4.365
416.83	4.339
417.03	4.321
417.23	4.299
417.44	4.282
417.64	4.260
417.84	4.252
418.05	4.258
418.25	4.274
418.45	4.276
418.66	4.271
418.86	4.253
419.06	4.281
419.27	4.285
419.47	4.289
419.67	4.295
419.88	4.288
420.08	4.283
420.28	4.268
420.49	4.250
420.69	4.236
420.89	4.235
421.10	4.244
421.30	4.229
421.50	4.227
421.71	4.221
421.91	4.217
422.11	4.233
422.32	4.239
422.52	4.242
422.72	4.260
422.93	4.265
423.13	4.281
423.33	4.288
423.54	4.289
423.74	4.284
423.94	4.302
424.15	4.304
424.35	4.303
424.55	4.309
424.76	4.325
424.96	4.310
425.16	4.318
425.36	4.315
425.57	4.310
425.77	4.320
425.97	4.350
426.18	4.347
426.38	4.341
426.58	4.337
426.79	4.346
426.99	4.331
427.19	4.345
427.39	4.336
427.60	4.337
427.80	4.363
428.00	4.373
428.21	4.358
428.41	4.347
428.61	4.345
428.82	4.345
429.02	4.352
429.22	4.378
429.42	4.372
429.63	4.384
429.83	4.370
430.03	4.353
430.24	4.344
430.44	4.360
430.64	4.375
430.84	4.390
431.05	4.388
431.25	4.383
431.45	4.364
431.65	4.363
431.86	4.344
432.06	4.353
432.26	4.351
432.47	4.357
432.67	4.329
432.87	4.329
433.07	4.321
433.28	4.330
433.48	4.323
433.68	4.325
433.88	4.339
434.09	4.358
434.29	4.363
434.49	4.349
434.69	4.334
434.90	4.345
435.10	4.320
435.30	4.334
435.51	4.338
435.71	4.341
435.91	4.347
436.11	4.338
436.32	4.317
436.52	4.314
436.72	4.345
436.92	4.364
437.13	4.366
437.33	4.371
437.53	4.362
437.73	4.352
437.93	4.343
438.14	4.344
438.34	4.334
438.54	4.350
438.74	4.345
438.95	4.328
439.15	4.316
439.35	4.327
439.55	4.335
439.76	4.342
439.96	4.353
440.16	4.363
440.36	4.368
440.56	4.381
440.77	4.369
440.97	4.373
441.17	4.376
441.37	4.387
441.58	4.382
441.78	4.397
441.98	4.393
442.18	4.376
442.38	4.376
442.59	4.380
442.79	4.375
442.99	4.405
443.19	4.413
443.40	4.419
443.60	4.424
443.80	4.431
444.00	4.426
444.20	4.419
444.41	4.420
444.61	4.418
444.81	4.404
445.01	4.396
445.21	4.374
445.42	4.377
445.62	4.367
445.82	4.353
446.02	4.344
446.22	4.330
446.43	4.332
446.63	4.331
446.83	4.328
447.03	4.329
447.23	4.336
447.44	4.343
447.64	4.340
447.84	4.355
448.04	4.361
448.24	4.367
448.44	4.385
448.65	4.392
448.85	4.403
449.05	4.419
449.25	4.418
449.45	4.424
449.65	4.428
449.86	4.443
450.06	4.443
450.26	4.460
450.46	4.465
450.66	4.471
450.87	4.472
451.07	4.465
451.27	4.442
451.47	4.458
451.67	4.463
451.87	4.467
452.08	4.435
452.28	4.436
452.48	4.419
452.68	4.431
452.88	4.430
453.08	4.419
453.28	4.419
453.49	4.437
453.69	4.443
453.89	4.432
454.09	4.425
454.29	4.446
454.49	4.449
454.70	4.463
454.90	4.454
455.10	4.456
455.30	4.458
455.50	4.474
455.70	4.480
455.90	4.475
456.11	4.477
456.31	4.487
456.51	4.474
456.71	4.474
456.91	4.473
457.11	4.483
457.31	4.476
457.51	4.484
457.72	4.466
457.92	4.447
458.12	4.439
458.32	4.439
458.52	4.430
458.72	4.437
458.92	4.437
459.12	4.433
459.33	4.414
459.53	4.423
459.73	4.433
459.93	4.438
460.13	4.453
460.33	4.456
460.53	4.462
460.73	4.466
460.93	4.468
461.14	4.474
461.34	4.486
461.54	4.508
461.74	4.505
461.94	4.511
462.14	4.526
462.34	4.523
462.54	4.531
462.74	4.513
462.95	4.514
463.15	4.515
463.35	4.498
463.55	4.490
463.75	4.477
463.95	4.481
464.15	4.488
464.35	4.490
464.55	4.485
464.75	4.493
464.95	4.514
465.16	4.515
465.36	4.517
465.56	4.523
465.76	4.535
465.96	4.543
466.16	4.558
466.36	4.561
466.56	4.546
466.76	4.552
466.96	4.548
467.16	4.548
467.36	4.546
467.57	4.549
467.77	4.560
467.97	4.549
468.17	4.549
468.37	4.535
468.57	4.543
468.77	4.559
468.97	4.553
469.17	4.551
469.37	4.558
469.57	4.572
469.77	4.583
469.97	4.582
470.17	4.591
470.37	4.597
470.57	4.591
470.78	4.562
470.98	4.566
471.18	4.583
471.38	4.594
471.58	4.604
471.78	4.597
471.98	4.580
472.18	4.586
472.38	4.588
472.58	4.592
472.78	4.611
472.98	4.625
473.18	4.622
473.38	4.628
473.58	4.625
473.78	4.620
473.98	4.632
474.18	4.654
474.38	4.654
474.58	4.653
474.78	4.652
474.98	4.653
475.18	4.650
475.38	4.653
475.58	4.646
475.79	4.645
475.99	4.633
476.19	4.625
476.39	4.614
476.59	4.612
476.79	4.636
476.99	4.632
477.19	4.629
477.39	4.623
477.59	4.626
477.79	4.617
477.99	4.623
478.19	4.628
478.39	4.639
478.59	4.649
478.79	4.654
478.99	4.640
479.19	4.658
479.39	4.665
479.59	4.692
479.79	4.693
479.99	4.707
480.19	4.705
480.39	4.712
480.59	4.706
480.79	4.718
480.99	4.709
481.19	4.714
481.39	4.703
481.59	4.697
481.79	4.696
481.99	4.697
482.19	4.693
482.39	4.699
482.59	4.699
482.79	4.699
482.99	4.694
483.19	4.729
483.39	4.795
483.59	4.850
483.79	4.857
483.99	4.838
484.19	4.821
484.39	4.817
484.58	4.816
484.78	4.819
484.98	4.821
485.18	4.823
485.38	4.812
485.58	4.758
485.78	4.699
485.98	4.680
486.18	4.692
486.38	4.712
486.58	4.720
486.78	4.722
486.98	4.721
487.18	4.729
487.38	4.735
487.58	4.738
487.78	4.744
487.98	4.748
488.18	4.748
488.38	4.750
488.58	4.749
488.78	4.747
488.98	4.754
489.18	4.758
489.37	4.757
489.57	4.760
489.77	4.765
489.97	4.766
490.17	4.765
490.37	4.772
490.57	4.772
490.77	4.782
490.97	4.790
491.17	4.786
491.37	4.796
491.57	4.804
491.77	4.806
491.97	4.807
492.17	4.812
492.37	4.824
492.56	4.822
492.76	4.830
492.96	4.832
493.16	4.835
493.36	4.846
493.56	4.849
493.76	4.851
493.96	4.864
494.16	4.873
494.36	4.877
494.56	4.874
494.76	4.887
494.95	4.887
495.15	4.897
495.35	4.893
495.55	4.892
495.75	4.883
495.95	4.888
496.15	4.892
496.35	4.899
496.55	4.908
496.75	4.914
496.95	4.916
497.14	4.915
497.34	4.921
497.54	4.942
497.74	4.953
497.94	4.968
498.14	4.976
498.34	4.970
498.54	4.975
498.74	4.975
498.93	4.980
499.13	4.993
499.33	5.015
499.53	5.020
499.73	5.030
499.93	5.020
500.13	5.026
500.33	5.030
500.53	5.043
500.72	5.043
500.92	5.041
501.12	5.047
501.32	5.044
501.52	5.036
501.72	5.035
501.92	5.026
502.12	5.040
502.31	5.048
502.51	5.052
502.71	5.055
502.91	5.062
503.11	5.071
503.31	5.073
503.51	5.073
503.70	5.074
503.90	5.085
504.10	5.094
504.30	5.096
504.50	5.095
504.70	5.105
504.90	5.105
505.09	5.119
505.29	5.125
505.49	5.131
505.69	5.155
505.89	5.164
506.09	5.166
506.29	5.178
506.48	5.186
506.68	5.188
506.88	5.186
507.08	5.198
507.28	5.196
507.48	5.204
507.67	5.200
507.87	5.198
508.07	5.203
508.27	5.207
508.47	5.201
508.67	5.202
508.86	5.212
509.06	5.213
509.26	5.215
509.46	5.231
509.66	5.229
509.85	5.247
510.05	5.258
510.25	5.267
510.45	5.278
510.65	5.289
510.85	5.296
511.04	5.298
511.24	5.311
511.44	5.322
511.64	5.318
511.84	5.333
512.03	5.326
512.23	5.325
512.43	5.324
512.63	5.327
512.83	5.336
513.02	5.346
513.22	5.352
513.42	5.363
513.62	5.371
513.82	5.382
514.01	5.396
514.21	5.413
514.41	5.427
514.61	5.437
514.81	5.433
515.00	5.425
515.20	5.423
515.40	5.444
515.60	5.434
515.80	5.442
515.99	5.442
516.19	5.432
516.39	5.442
516.59	5.437
516.78	5.449
516.98	5.468
517.18	5.472
517.38	5.489
517.58	5.481
517.77	5.495
517.97	5.488
518.17	5.489
518.37	5.492
518.56	5.492
518.76	5.504
518.96	5.503
519.16	5.498
519.36	5.517
519.55	5.519
519.75	5.528
519.95	5.534
520.15	5.538
520.34	5.551
520.54	5.560
520.74	5.569
520.94	5.570
521.13	5.583
521.33	5.592
521.53	5.591
521.73	5.593
521.92	5.593
522.12	5.607
522.32	5.621
522.52	5.624
522.71	5.636
522.91	5.641
523.11	5.647
523.31	5.638
523.50	5.647
523.70	5.653
523.90	5.657
524.09	5.666
524.29	5.668
524.49	5.675
524.69	5.686
524.88	5.690
525.08	5.709
525.28	5.711
525.48	5.715
525.67	5.719
525.87	5.727
526.07	5.728
526.26	5.727
526.46	5.736
526.66	5.743
526.86	5.744
527.05	5.744
527.25	5.737
527.45	5.748
527.64	5.755
527.84	5.763
528.04	5.768
528.24	5.790
528.43	5.810
528.63	5.817
528.83	5.819
529.02	5.822
529.22	5.830
529.42	5.831
529.62	5.832
529.81	5.840
530.01	5.842
530.21	5.848
530.40	5.842
530.60	5.833
530.80	5.829
530.99	5.836
531.19	5.843
531.39	5.843
531.58	5.855
531.78	5.872
531.98	5.883
532.18	5.900
532.37	5.908
532.57	5.916
532.77	5.932
532.96	5.938
533.16	5.946
533.36	5.957
533.55	5.969
533.75	5.969
533.95	5.976
534.14	5.977
534.34	5.984
534.54	5.993
534.73	6.011
534.93	6.017
535.13	6.030
535.32	6.034
535.52	6.037
535.72	6.040
535.91	6.057
536.11	6.054
536.31	6.066
536.50	6.071
536.70	6.074
536.90	6.080
537.09	6.092
537.29	6.101
537.48	6.112
537.68	6.123
537.88	6.135
538.07	6.142
538.27	6.153
538.47	6.165
538.66	6.181
538.86	6.196
539.06	6.194
539.25	6.216
539.45	6.222
539.65	6.249
539.84	6.271
540.04	6.283
540.23	6.296
540.43	6.297
540.63	6.301
540.82	6.297
541.02	6.299
541.22	6.303
541.41	6.298
541.61	6.300
541.80	6.296
542.00	6.294
542.20	6.294
542.39	6.287
542.59	6.294
542.79	6.299
542.98	6.307
543.18	6.312
543.37	6.320
543.57	6.326
543.77	6.342
543.96	6.351
544.16	6.349
544.35	6.358
544.55	6.385
544.75	6.395
544.94	6.402
545.14	6.416
545.33	6.433
545.53	6.452
545.73	6.468
545.92	6.481
546.12	6.492
546.31	6.508
546.51	6.524
546.71	6.535
546.90	6.548
547.10	6.562
547.29	6.576
547.49	6.593
547.69	6.609
547.88	6.620
548.08	6.619
548.27	6.625
548.47	6.638
548.66	6.643
548.86	6.656
549.06	6.665
549.25	6.683
549.45	6.695
549.64	6.693
549.84	6.706
550.03	6.710
550.23	6.730
550.43	6.743
550.62	6.760
550.82	6.786
551.01	6.797
551.21	6.809
551.40	6.815
551.60	6.834
551.80	6.848
551.99	6.846
552.19	6.861
552.38	6.865
552.58	6.866
552.77	6.874
552.97	6.880
553.16	6.876
553.36	6.869
553.56	6.889
553.75	6.880
553.95	6.883
554.14	6.892
554.34	6.908
554.53	6.928
554.73	6.958
554.92	6.956
555.12	6.964
555.31	6.983
555.51	7.028
555.70	7.026
555.90	7.050
556.10	7.070
556.29	7.074
556.49	7.083
556.68	7.090
556.88	7.096
557.07	7.121
557.27	7.139
557.46	7.144
557.66	7.138
557.85	7.158
558.05	7.167
558.24	7.175
558.44	7.199
558.63	7.204
558.83	7.208
559.02	7.224
559.22	7.225
559.41	7.221
559.61	7.235
559.80	7.259
560.00	7.252
560.19	7.267
560.39	7.287
560.58	7.295
560.78	7.314
560.97	7.337
561.17	7.345
561.36	7.365
561.56	7.384
561.75	7.397
561.95	7.396
562.14	7.412
562.34	7.420
562.53	7.420
562.73	7.425
562.92	7.437
563.12	7.444
563.31	7.444
563.51	7.460
563.70	7.475
563.90	7.497
564.09	7.519
564.29	7.547
564.48	7.551
564.68	7.570
564.87	7.590
565.07	7.594
565.26	7.604
565.45	7.617
565.65	7.626
565.84	7.629
566.04	7.622
566.23	7.626
566.43	7.633
566.62	7.641
566.82	7.649
567.01	7.654
567.21	7.662
567.40	7.671
567.60	7.700
567.79	7.714
567.98	7.741
568.18	7.768
568.37	7.794
568.57	7.793
568.76	7.815
568.96	7.829
569.15	7.848
569.35	7.864
569.54	7.886
569.73	7.879
569.93	7.896
570.12	7.895
570.32	7.908
570.51	7.911
570.71	7.935
570.90	7.958
571.09	7.971
571.29	7.990
571.48	8.011
571.68	8.014
571.87	8.020
572.07	8.023
572.26	8.042
572.45	8.051
572.65	8.066
572.84	8.073
573.04	8.077
573.23	8.084
573.43	8.099
573.62	8.104
573.81	8.124
574.01	8.146
574.20	8.151
574.40	8.154
574.59	8.158
574.78	8.160
574.98	8.185
575.17	8.194
575.37	8.209
575.56	8.215
575.75	8.223
575.95	8.237
576.14	8.251
576.34	8.269
576.53	8.282
576.72	8.308
576.92	8.330
577.11	8.331
577.31	8.355
577.50	8.369
577.69	8.387
577.89	8.406
578.08	8.413
578.28	8.419
578.47	8.429
578.66	8.441
578.86	8.455
579.05	8.467
579.24	8.478
579.44	8.481
579.63	8.490
579.83	8.489
580.02	8.501
580.21	8.513
580.41	8.544
580.60	8.561
580.79	8.596
580.99	8.610
581.18	8.625
581.38	8.641
581.57	8.667
581.76	8.680
581.96	8.707
582.15	8.723
582.34	8.743
582.54	8.741
582.73	8.763
582.92	8.754
583.12	8.755
583.31	8.759
583.50	8.771
583.70	8.771
583.89	8.790
584.08	8.795
584.28	8.818
584.47	8.820
584.66	8.850
584.86	8.859
585.05	8.884
585.24	8.907
585.44	8.930
585.63	8.956
585.82	8.971
586.02	8.972
586.21	9.003
586.40	9.002
586.60	9.031
586.79	9.035
586.98	9.039
587.18	9.069
587.37	9.080
587.56	9.082
587.76	9.087
587.95	9.111
588.14	9.128
588.34	9.124
588.53	9.140
588.72	9.153
588.92	9.170
589.11	9.195
589.30	9.185
589.50	9.204
589.69	9.220
589.88	9.214
590.07	9.213
590.27	9.227
590.46	9.243
590.65	9.243
590.85	9.249
591.04	9.264
591.23	9.287
591.43	9.293
591.62	9.312
591.81	9.316
592.00	9.354
592.20	9.378
592.39	9.413
592.58	9.427
592.78	9.457
592.97	9.477
593.16	9.477
593.35	9.486
593.55	9.509
593.74	9.509
593.93	9.546
594.13	9.531
594.32	9.541
594.51	9.555
594.70	9.570
594.90	9.570
595.09	9.571
595.28	9.590
595.47	9.595
595.67	9.619
595.86	9.630
596.05	9.639
596.24	9.683
596.44	9.697
596.63	9.687
596.82	9.676
597.02	9.696
597.21	9.711
597.40	9.735
597.59	9.734
597.79	9.724
597.98	9.736
598.17	9.732
598.36	9.729
598.56	9.745
598.75	9.750
598.94	9.779
599.13	9.795
599.32	9.814
599.52	9.803
599.71	9.835
599.90	9.864
600.09	9.884
600.29	9.912
600.48	9.938
600.67	9.935
600.86	9.964
601.06	9.990
601.25	10.013
601.44	10.024
601.63	10.058
601.82	10.064
602.02	10.087
602.21	10.088
602.40	10.102
602.59	10.106
602.79	10.132
602.98	10.158
603.17	10.174
603.36	10.203
603.55	10.218
603.75	10.230
603.94	10.248
604.13	10.246
604.32	10.263
604.51	10.260
604.71	10.275
604.90	10.285
605.09	10.288
605.28	10.280
605.47	10.271
605.67	10.284
605.86	10.291
606.05	10.301
606.24	10.323
606.43	10.344
606.63	10.372
606.82	10.381
607.01	10.396
607.20	10.402
607.39	10.426
607.59	10.427
607.78	10.442
607.97	10.464
608.16	10.475
608.35	10.492
608.54	10.502
608.74	10.518
608.93	10.542
609.12	10.547
609.31	10.577
609.50	10.604
609.69	10.635
609.89	10.645
610.08	10.653
610.27	10.667
610.46	10.675
610.65	10.694
610.84	10.702
611.04	10.709
611.23	10.725
611.42	10.731
611.61	10.728
611.80	10.747
611.99	10.758
612.19	10.766
612.38	10.785
612.57	10.797
612.76	10.795
612.95	10.831
613.14	10.865
613.33	10.896
613.53	10.922
613.72	10.961
613.91	10.962
614.10	10.997
614.29	11.027
614.48	11.033
614.67	11.071
614.86	11.098
615.06	11.100
615.25	11.097
615.44	11.120
615.63	11.131
615.82	11.139
616.01	11.153
616.20	11.159
616.39	11.170
616.59	11.190
616.78	11.201
616.97	11.230
617.16	11.258
617.35	11.278
617.54	11.276
617.73	11.301
617.92	11.316
618.12	11.321
618.31	11.321
618.50	11.343
618.69	11.375
618.88	11.391
619.07	11.381
619.26	11.394
619.45	11.418
619.64	11.452
619.83	11.472
620.03	11.495
620.22	11.531
620.41	11.568
620.60	11.575
620.79	11.584
620.98	11.591
621.17	11.623
621.36	11.644
621.55	11.676
621.74	11.683
621.93	11.676
622.12	11.690
622.32	11.717
622.51	11.712
622.70	11.732
622.89	11.749
623.08	11.764
623.27	11.789
623.46	11.792
623.65	11.780
623.84	11.799
624.03	11.819
624.22	11.834
624.41	11.822
624.60	11.860
624.79	11.866
624.99	11.890
625.18	11.914
625.37	11.922
625.56	11.935
625.75	11.969
625.94	11.964
626.13	11.991
626.32	11.993
626.51	12.023
626.70	12.024
626.89	12.047
627.08	12.048
627.27	12.050
627.46	12.055
627.65	12.079
627.84	12.080
628.03	12.103
628.22	12.106
628.41	12.145
628.60	12.152
628.79	12.174
628.98	12.166
629.17	12.172
629.37	12.197
629.56	12.227
629.75	12.237
629.94	12.271
630.13	12.289
630.32	12.320
630.51	12.322
630.70	12.340
630.89	12.359
631.08	12.396
631.27	12.425
631.46	12.443
631.65	12.439
631.84	12.458
632.03	12.451
632.22	12.483
632.41	12.492
632.60	12.512
632.79	12.549
632.98	12.554
633.17	12.581
633.36	12.593
633.55	12.602
633.74	12.626
633.93	12.639
634.12	12.668
634.31	12.690
634.50	12.708
634.69	12.710
634.88	12.721
635.07	12.753
635.26	12.755
635.45	12.764
635.64	12.788
635.83	12.801
636.02	12.816
636.21	12.845
636.40	12.857
636.59	12.866
636.78	12.893
636.96	12.897
637.15	12.890
637.34	12.900
637.53	12.924
637.72	12.925
637.91	12.952
638.10	12.963
638.29	12.976
638.48	12.972
638.67	12.982
638.86	13.003
639.05	13.031
639.24	13.068
639.43	13.128
639.62	13.137
639.81	13.162
640.00	13.170
640.19	13.193
640.38	13.210
640.57	13.237
640.76	13.258
640.95	13.281
641.14	13.280
641.32	13.305
641.51	13.293
641.70	13.331
641.89	13.366
642.08	13.392
642.27	13.402
642.46	13.402
642.65	13.396
642.84	13.431
643.03	13.432
643.22	13.444
643.41	13.455
643.60	13.487
643.79	13.495
643.98	13.494
644.16	13.513
644.35	13.542
644.54	13.540
644.73	13.577
644.92	13.585
645.11	13.603
645.30	13.636
645.49	13.643
645.68	13.603
645.87	13.628
646.06	13.645
646.24	13.679
646.43	13.694
646.62	13.718
646.81	13.736
647.00	13.738
647.19	13.744
647.38	13.777
647.57	13.779
647.76	13.823
647.95	13.828
648.13	13.832
648.32	13.842
648.51	13.848
648.70	13.844
648.89	13.842
649.08	13.860
649.27	13.880
649.46	13.850
649.65	13.873
649.83	13.903
650.02	13.908
650.21	13.945
650.40	13.938
650.59	13.968
650.78	14.021
650.97	14.048
651.16	14.063
651.34	14.087
651.53	14.116
651.72	14.123
651.91	14.107
652.10	14.126
652.29	14.136
652.48	14.155
652.66	14.170
652.85	14.179
653.04	14.201
653.23	14.210
653.42	14.224
653.61	14.243
653.80	14.257
653.98	14.290
654.17	14.298
654.36	14.319
654.55	14.335
654.74	14.343
654.93	14.345
655.11	14.356
655.30	14.376
655.49	14.405
655.68	14.415
655.87	14.446
656.06	14.456
656.24	14.491
656.43	14.493
656.62	14.506
656.81	14.493
657.00	14.530
657.19	14.548
657.37	14.569
657.56	14.562
657.75	14.544
657.94	14.577
658.13	14.615
658.31	14.631
658.50	14.648
658.69	14.653
658.88	14.691
659.07	14.681
659.26	14.693
659.44	14.678
659.63	14.698
659.82	14.752
660.01	14.739
660.20	14.754
660.38	14.757
660.57	14.771
660.76	14.794
660.95	14.830
661.14	14.864
661.32	14.888
661.51	14.935
661.70	14.966
661.89	14.980
662.08	15.008
662.26	14.997
662.45	15.005
662.64	15.015
662.83	15.037
663.01	15.019
663.20	15.040
663.39	15.057
663.58	15.070
663.77	15.056
663.95	15.082
664.14	15.103
664.33	15.161
664.52	15.192
664.70	15.222
664.89	15.239
665.08	15.274
665.27	15.287
665.45	15.291
665.64	15.304
665.83	15.352
666.02	15.375
666.20	15.386
666.39	15.370
666.58	15.411
666.77	15.416
666.95	15.419
667.14	15.429
667.33	15.446
667.52	15.470
667.70	15.483
667.89	15.473
668.08	15.473
668.27	15.500
668.45	15.541
668.64	15.548
668.83	15.560
669.02	15.592
669.20	15.593
669.39	15.608
669.58	15.634
669.77	15.638
669.95	15.635
670.14	15.660
670.33	15.670
670.51	15.685
670.70	15.705
670.89	15.752
671.08	15.767
671.26	15.824
671.45	15.824
671.64	15.801
671.82	15.852
672.01	15.917
672.20	15.925
672.39	15.918
672.57	15.915
672.76	15.925
672.95	15.891
673.13	15.906
673.32	15.911
673.51	15.945
673.70	15.978
673.88	15.986
674.07	15.961
674.26	15.959
674.44	16.002
674.63	16.027
674.82	16.033
675.00	16.068
675.19	16.089
675.38	16.100
675.56	16.122
675.75	16.144
675.94	16.128
676.12	16.143
676.31	16.190
676.50	16.194
676.69	16.201
676.87	16.238
677.06	16.249
677.25	16.256
677.43	16.264
677.62	16.262
677.81	16.303
677.99	16.358
678.18	16.384
678.37	16.415
678.55	16.428
678.74	16.435
678.93	16.443
679.11	16.455
679.30	16.463
679.48	16.479
679.67	16.499
679.86	16.507
680.04	16.501
680.23	16.516
680.42	16.507
680.60	16.523
680.79	16.554
680.98	16.554
681.16	16.569
681.35	16.596
681.54	16.579
681.72	16.614
681.91	16.632
682.10	16.670
682.28	16.709
682.47	16.721
682.65	16.741
682.84	16.746
683.03	16.781
683.21	16.823
683.40	16.838
683.59	16.877
683.77	16.884
683.96	16.889
684.14	16.903
684.33	16.915
684.52	16.953
684.70	16.976
684.89	16.993
685.07	16.987
685.26	17.008
685.45	17.014
685.63	17.032
685.82	17.045
686.00	17.068
686.19	17.074
686.38	17.088
686.56	17.084
686.75	17.112
686.93	17.117
687.12	17.138
687.31	17.141
687.49	17.154
687.68	17.168
687.86	17.172
688.05	17.163
688.24	17.188
688.42	17.178
688.61	17.184
688.79	17.165
688.98	17.193
689.17	17.200
689.35	17.212
689.54	17.244
689.72	17.260
689.91	17.278
690.09	17.330
690.28	17.326
690.47	17.341
690.65	17.371
690.84	17.426
691.02	17.450
691.21	17.457
691.39	17.469
691.58	17.485
691.76	17.514
691.95	17.522
692.14	17.525
692.32	17.534
692.51	17.571
692.69	17.596
692.88	17.589
693.06	17.591
693.25	17.637
693.43	17.650
693.62	17.664
693.81	17.689
693.99	17.718
694.18	17.723
694.36	17.754
694.55	17.783
694.73	17.783
694.92	17.811
695.10	17.797
695.29	17.801
695.47	17.828
695.66	17.841
695.84	17.880
696.03	17.894
696.21	17.898
696.40	17.928
696.59	17.953
696.77	17.956
696.96	17.947
697.14	17.980
697.33	18.006
697.51	18.057
697.70	18.064
697.88	18.058
698.07	18.067
698.25	18.119
698.44	18.122
698.62	18.102
698.81	18.115
698.99	18.138
699.18	18.190
699.36	18.202
699.55	18.175
699.73	18.172
699.92	18.142
700.10	18.140
700.29	18.110
700.47	18.108
700.66	18.132
700.84	18.160
701.03	18.143
701.21	18.123
701.40	18.113
701.58	18.154
701.77	18.205
701.95	18.267
702.13	18.326
702.32	18.386
702.50	18.442
702.69	18.467
702.87	18.465
703.06	18.527
703.24	18.538
703.43	18.572
703.61	18.578
703.80	18.575
703.98	18.549
704.17	18.547
704.35	18.548
704.54	18.556
704.72	18.580
704.90	18.631
705.09	18.637
705.27	18.713
705.46	18.739
705.64	18.738
705.83	18.713
706.01	18.785
706.20	18.784
706.38	18.787
706.56	18.799
706.75	18.848
706.93	18.841
707.12	18.879
707.30	18.851
707.49	18.857
707.67	18.871
707.86	18.908
708.04	18.930
708.22	18.970
708.41	18.978
708.59	18.984
708.78	18.935
708.96	18.962
709.14	18.966
709.33	18.988
709.51	19.012
709.70	19.039
709.88	19.068
710.07	19.053
710.25	19.082
710.43	19.110
710.62	19.130
710.80	19.158
710.99	19.209
711.17	19.223
711.35	19.194
711.54	19.196
711.72	19.203
711.91	19.246
712.09	19.249
712.27	19.211
712.46	19.245
712.64	19.258
712.83	19.277
713.01	19.264
713.19	19.285
713.38	19.351
713.56	19.363
713.75	19.392
713.93	19.405
714.11	19.432
714.30	19.501
714.48	19.487
714.66	19.506
714.85	19.502
715.03	19.538
715.22	19.542
715.40	19.541
715.58	19.554
715.77	19.572
715.95	19.578
716.13	19.593
716.32	19.568
716.50	19.596
716.68	19.625
716.87	19.666
717.05	19.633
717.24	19.632
717.42	19.650
717.60	19.664
717.79	19.661
717.97	19.670
718.15	19.711
718.34	19.778
718.52	19.842
718.70	19.836
718.89	19.827
719.07	19.877
719.25	19.900
719.44	19.921
719.62	19.947
719.80	19.961
719.99	19.956
720.17	19.977
720.35	19.964
720.54	19.878
720.72	19.913
720.90	19.929
721.09	19.951
721.27	19.959
721.45	19.946
721.64	19.991
721.82	19.985
722.00	20.038
722.19	20.019
722.37	20.042
722.55	20.105
722.74	20.110
722.92	20.168
723.10	20.169
723.28	20.219
723.47	20.284
723.65	20.300
723.83	20.343
724.02	20.343
724.20	20.340
724.38	20.343
724.57	20.372
724.75	20.370
724.93	20.347
725.11	20.356
725.30	20.392
725.48	20.416
725.66	20.406
725.85	20.438
726.03	20.435
726.21	20.485
726.39	20.494
726.58	20.494
726.76	20.536
726.94	20.582
727.13	20.579
727.31	20.566
727.49	20.577
727.67	20.578
727.86	20.598
728.04	20.659
728.22	20.642
728.40	20.704
728.59	20.712
728.77	20.701
728.95	20.716
729.13	20.766
729.32	20.790
729.50	20.773
729.68	20.825
729.86	20.830
730.05	20.847
730.23	20.875
730.41	20.870
730.59	20.897
730.78	20.961
730.96	20.973
731.14	20.971
731.32	20.986
731.51	21.009
731.69	21.021
731.87	21.013
732.05	20.987
732.24	21.012
732.42	21.010
732.60	21.030
732.78	20.993
732.97	20.957
733.15	20.960
733.33	20.975
733.51	20.980
733.69	20.967
733.88	20.978
734.06	20.990
734.24	20.992
734.42	21.008
734.60	21.016
734.79	21.025
734.97	21.074
735.15	21.073
735.33	21.051
735.52	21.049
735.70	21.070
735.88	21.105
736.06	21.132
736.24	21.135
736.43	21.167
736.61	21.193
736.79	21.254
736.97	21.278
737.15	21.332
737.34	21.381
737.52	21.434
737.70	21.451
737.88	21.522
738.06	21.526
738.24	21.622
738.43	21.611
738.61	21.629
738.79	21.597
738.97	21.644
739.15	21.651
739.33	21.634
739.52	21.661
739.70	21.684
739.88	21.633
740.06	21.640
740.24	21.575
740.42	21.577
740.61	21.543
740.79	21.574
740.97	21.552
741.15	21.569
741.33	21.598
741.51	21.598
741.70	21.627
741.88	21.694
742.06	21.724
742.24	21.799
742.42	21.817
742.60	21.893
742.78	21.863
742.97	21.906
743.15	21.916
743.33	21.989
743.51	22.030
743.69	22.056
743.87	22.018
744.05	22.039
744.24	21.980
744.42	22.009
744.60	22.028
744.78	22.128
744.96	22.157
745.14	22.191
745.32	22.190
745.50	22.160
745.69	22.134
745.87	22.187
746.05	22.183
746.23	22.245
746.41	22.247
746.59	22.237
746.77	22.202
746.95	22.182
747.13	22.190
747.32	22.145
747.50	22.137
747.68	22.171
747.86	22.167
748.04	22.208
748.22	22.225
748.40	22.311
748.58	22.344
748.76	22.403
748.94	22.402
749.13	22.410
749.31	22.428
749.49	22.526
749.67	22.579
749.85	22.594
750.03	22.630
750.21	22.654
750.39	22.637
750.57	22.656
750.75	22.666
750.93	22.720
751.11	22.779
751.30	22.854
751.48	22.853
751.66	22.845
751.84	22.851
752.02	22.883
752.20	22.900
752.38	22.901
752.56	22.906
752.74	22.867
752.92	22.902
753.10	22.901
753.28	22.913
753.46	22.891
753.64	22.844
753.82	22.862
754.00	22.869
754.18	22.910
754.37	22.897
754.55	22.933
754.73	23.016
754.91	22.999
755.09	22.964
755.27	22.976
755.45	22.987
755.63	23.073
755.81	23.065
755.99	23.043
756.17	23.028
756.35	23.070
756.53	23.034
756.71	23.028
756.89	23.029
757.07	23.010
757.25	23.006
757.43	22.996
757.61	22.927
757.79	23.029
757.97	23.090
758.15	23.112
758.33	23.152
758.51	23.190
758.69	23.181
758.87	23.228
759.05	23.336
759.23	23.362
759.41	23.466
759.59	23.524
759.77	23.494
759.95	23.492
760.13	23.493
760.31	23.502
760.49	23.525
760.67	23.575
760.85	23.584
761.03	23.568
761.21	23.588
761.39	23.552
761.57	23.609
761.75	23.630
761.93	23.629
762.11	23.637
762.29	23.662
762.47	23.691
762.65	23.715
762.83	23.700
763.01	23.727
763.19	23.753
763.37	23.823
763.55	23.839
763.73	23.901
763.91	23.952
764.09	23.974
764.27	23.966
764.45	23.985
764.63	23.945
764.81	23.941
764.99	23.914
765.16	23.881
765.34	23.855
765.52	23.837
765.70	23.779
765.88	23.753
766.06	23.725
766.24	23.717
766.42	23.693
766.60	23.749
766.78	23.771
766.96	23.866
767.14	23.897
767.32	23.919
767.50	23.922
767.68	23.974
767.86	23.990
768.03	24.034
768.21	24.048
768.39	24.027
768.57	23.965
768.75	23.990
768.93	23.927
769.11	23.973
769.29	24.011
769.47	24.013
769.65	24.042
769.83	24.063
770.01	24.165
770.19	24.166
770.36	24.234
770.54	24.316
770.72	24.366
770.90	24.384
771.08	24.460
771.26	24.435
771.44	24.513
771.62	24.548
771.80	24.568
771.98	24.467
772.15	24.485
772.33	24.534
772.51	24.498
772.69	24.520
772.87	24.478
773.05	24.392
773.23	24.430
773.41	24.405
773.58	24.430
773.76	24.457
773.94	24.508
774.12	24.593
774.30	24.547
774.48	24.568
774.66	24.436
774.84	24.497
775.01	24.545
775.19	24.619
775.37	24.648
775.55	24.548
775.73	24.543
775.91	24.556
776.09	24.532
776.26	24.514
776.44	24.561
776.62	24.670
776.80	24.666
776.98	24.713
777.16	24.701
777.34	24.849
777.51	24.937
777.69	24.960
777.87	25.005
778.05	25.057
778.23	25.132
778.41	25.150
778.58	25.164
778.76	25.236
778.94	25.219
779.12	25.246
779.30	25.176
779.48	25.198
779.65	25.187
779.83	25.174
780.01	25.184
780.19	25.229
780.37	25.243
780.55	25.289
780.72	25.270
780.90	25.260
781.08	25.214
781.26	25.294
781.44	25.297
781.61	25.349
781.79	25.330
781.97	25.306
782.15	25.282
782.33	25.245
782.50	25.209
782.68	25.252
782.86	25.281
783.04	25.307
783.22	25.259
783.39	25.245
783.57	25.266
783.75	25.320
783.93	25.375
784.11	25.427
784.28	25.316
784.46	25.366
784.64	25.369
784.82	25.418
784.99	25.420
785.17	25.367
785.35	25.400
785.53	25.337
785.71	25.376
785.88	25.344
786.06	25.387
786.24	25.586
786.42	25.629
786.59	25.567
786.77	25.487
786.95	25.561
787.13	25.654
787.30	25.713
787.48	25.911
787.66	25.866
787.84	25.890
788.01	25.869
788.19	25.944
788.37	25.903
788.55	26.024
788.72	26.087
788.90	26.052
789.08	26.115
789.26	26.035
789.43	25.996
789.61	26.036
789.79	26.041
789.97	26.068
790.14	26.039
790.32	26.059
790.50	26.037
790.68	26.084
790.85	26.086
791.03	26.080
791.21	26.123
791.38	26.027
791.56	25.951
791.74	26.004
791.92	25.968
792.09	25.910
792.27	25.915
792.45	25.920
792.62	25.783
792.80	25.785
792.98	25.624
793.16	25.667
793.33	25.722
793.51	25.899
793.69	25.900
793.86	25.881
794.04	25.943
794.22	25.990
794.39	26.063
794.57	26.179
794.75	26.270
794.93	26.367
795.10	26.317
795.28	26.309
795.46	26.317
795.63	26.307
795.81	26.421
795.99	26.432
796.16	26.499
796.34	26.503
796.52	26.556
796.69	26.550
796.87	26.568
797.05	26.701
797.22	26.781
797.40	26.746
797.58	26.696
797.75	26.662
797.93	26.666
798.11	26.723
798.28	26.752
798.46	26.684
798.64	26.594
798.81	26.628
798.99	26.642
799.17	26.660
799.34	26.646
799.52	26.722
799.70	26.722
799.87	26.769
800.05	26.622
800.22	26.575
800.40	26.587
800.58	26.673
800.75	26.684
800.93	26.686
801.11	26.594
801.28	26.699
801.46	26.592
801.63	26.683
801.81	26.683
801.99	26.863
802.16	26.803
802.34	26.949
802.52	26.990
802.69	27.034
802.87	26.993
803.04	27.075
803.22	27.012
803.40	27.142
803.57	27.105
803.75	27.135
803.93	26.995
804.10	27.093
804.28	27.042
804.45	27.087
804.63	27.100
804.81	27.223
804.98	27.252
805.16	27.321
805.33	27.372
805.51	27.405
805.68	27.444
805.86	27.531
806.04	27.516
806.21	27.655
806.39	27.660
806.56	27.606
806.74	27.501
806.92	27.560
807.09	27.587
807.27	27.525
807.44	27.550
807.62	27.575
807.79	27.599
807.97	27.584
808.15	27.511
808.32	27.375
808.50	27.389
808.67	27.491
808.85	27.530
809.02	27.426
809.20	27.474
809.38	27.439
809.55	27.376
809.73	27.391
809.90	27.407
810.08	27.404
810.25	27.505
810.43	27.483
810.60	27.444
810.78	27.428
810.95	27.499
811.13	27.667
811.31	27.611
811.48	27.684
811.66	27.786
811.83	27.802
812.01	27.748
812.18	27.694
812.36	27.714
812.53	27.549
812.71	27.509
812.88	27.502
813.06	27.368
813.23	27.498
813.41	27.506
813.58	27.325
813.76	27.411
813.93	27.398
814.11	27.453
814.28	27.489
814.46	27.728
814.63	27.808
814.81	27.826
814.98	27.875
815.16	27.822
815.33	27.840
815.51	28.033
815.68	27.987
815.86	28.006
816.03	28.092
816.21	28.155
816.38	28.050
816.56	28.043
816.73	28.157
816.91	28.240
817.08	28.344
817.26	28.366
817.43	28.349
817.61	28.325
817.78	28.409
817.96	28.335
818.13	28.313
818.31	28.340
818.48	28.389
818.66	28.362
818.83	28.234
819.01	28.020
819.18	27.929
819.36	27.820
819.53	27.915
819.70	27.918
819.88	28.047
820.05	28.116
820.23	28.269
820.40	28.247
820.58	28.218
820.75	28.367
820.93	28.454
821.10	28.567
821.28	28.709
821.45	28.717
821.62	28.825
821.80	28.856
821.97	28.872
822.15	28.932
822.32	29.118
822.50	29.356
822.67	29.648
822.84	29.794
823.02	29.731
823.19	29.519
823.37	29.356
823.54	29.160
823.72	28.977
823.89	28.826
824.06	28.736
824.24	28.634
824.41	28.548
824.59	28.417
824.76	28.302
824.94	28.200
825.11	28.146
825.28	28.101
825.46	28.082
825.63	28.115
825.81	28.182
825.98	28.209
826.15	28.276
826.33	28.338
826.50	28.420
826.68	28.483
826.85	28.572
827.02	28.637
827.20	28.743
827.37	28.894
827.54	29.091
827.72	29.257
827.89	29.426
828.07	29.467
828.24	29.427
828.41	29.379
828.59	29.320
828.76	29.264
828.94	29.195
829.11	29.101
829.28	29.033
829.46	28.940
829.63	28.839
829.80	28.725
829.98	28.643
830.15	28.579
830.32	28.542
830.50	28.568
830.67	28.591
830.85	28.632
831.02	28.742
831.19	28.739
831.37	28.783
831.54	28.908
831.71	28.959
831.89	29.067
832.06	29.214
832.23	29.273
832.41	29.277
832.58	29.368
832.75	29.586
832.93	29.521
833.10	29.610
833.27	29.615
833.45	29.657
833.62	29.642
833.79	29.749
833.97	29.817
834.14	30.026
834.31	30.182
834.49	30.240
834.66	30.116
834.83	30.154
835.01	30.137
835.18	30.061
835.35	29.950
835.52	29.882
835.70	29.819
835.87	29.754
836.04	29.647
836.22	29.511
836.39	29.425
836.56	29.383
836.74	29.325
836.91	29.277
837.08	29.274
837.25	29.286
837.43	29.328
837.60	29.306
837.77	29.276
837.95	29.335
838.12	29.407
838.29	29.440
838.46	29.504
838.64	29.447
838.81	29.382
838.98	29.476
839.16	29.601
839.33	29.633
839.50	29.589
839.67	29.760
839.85	29.684
840.02	29.901
840.19	29.773
840.36	29.975
840.54	30.157
840.71	30.314
840.88	30.319
841.06	30.335
841.23	30.495
841.40	30.606
841.57	30.499
841.75	30.509
841.92	30.369
842.09	30.374
842.26	30.175
842.44	29.960
842.61	29.856
842.78	29.837
842.95	29.866
843.12	29.675
843.30	29.550
843.47	29.573
843.64	29.559
843.81	29.651
843.99	29.644
844.16	29.848
844.33	30.109
844.50	30.352
844.68	30.388
844.85	30.174
845.02	30.298
845.19	30.397
845.36	30.389
845.54	30.518
845.71	30.418
845.88	30.507
846.05	30.115
846.22	29.935
846.40	29.868
846.57	29.751
846.74	29.981
846.91	29.900
847.08	29.963
847.26	29.980
847.43	29.895
847.60	29.919
847.77	29.937
847.94	30.422
848.12	30.733
848.29	30.816
848.46	30.734
848.63	30.601
848.80	30.739
848.98	30.812
849.15	30.793
849.32	30.822
849.49	30.724
849.66	30.821
849.83	30.621
850.01	30.627
850.18	30.467
850.35	30.336
850.52	30.485
850.69	30.200
850.86	29.911
851.04	29.795
851.21	29.785
851.38	29.699
851.55	29.436
851.72	29.345
851.89	29.508
852.06	29.612
852.24	29.849
852.41	29.880
852.58	30.099
852.75	30.465
852.92	30.673
853.09	30.999
853.26	31.397
853.44	31.839
853.61	32.089
853.78	31.650
853.95	31.380
854.12	31.312
854.29	31.480
854.46	31.567
854.64	31.580
854.81	31.758
854.98	31.413
855.15	31.353
855.32	30.991
855.49	30.963
855.66	30.894
855.83	30.921
856.00	30.768
856.18	30.758
856.35	30.536
856.52	30.468
856.69	30.402
856.86	30.238
857.03	30.409
857.20	30.718
857.37	30.847
857.54	31.026
857.71	31.077
857.89	31.561
858.06	31.201
858.23	31.404
858.40	31.431
858.57	31.329
858.74	31.533
858.91	31.132
859.08	31.117
859.25	31.085
859.42	31.311
859.59	31.595
859.76	31.543
859.94	31.686
860.11	31.828
860.28	32.037
860.45	31.985
860.62	31.895
860.79	32.155
860.96	31.960
861.13	31.720
861.30	31.599
861.47	31.540
861.64	31.643
861.81	31.598
861.98	31.475
862.15	31.583
862.32	31.765
862.49	31.734
862.66	31.781
862.83	31.699
863.01	31.777
863.18	31.786
863.35	31.798
863.52	32.092
863.69	31.966
863.86	32.108
864.03	31.868
864.20	31.813
864.37	31.710
864.54	31.723
864.71	32.208
864.88	32.347
865.05	32.240
865.22	32.426
865.39	32.235
865.56	32.512
865.73	32.407
865.90	32.288
866.07	32.025
866.24	32.251
866.41	32.203
866.58	32.010
866.75	31.833
866.92	31.952
867.09	31.658
867.26	31.486
867.43	31.392
867.60	31.362
867.77	31.433
867.94	31.637
868.11	31.779
868.28	31.877
868.45	31.574
868.62	31.785
868.79	32.066
868.96	32.088
869.13	31.994
869.30	32.084
869.47	32.215
869.64	31.969
869.81	31.812
869.98	31.573
870.15	31.696
870.32	31.767
870.49	31.427
870.66	31.363
870.83	31.286
871.00	31.667
871.16	31.662
871.33	31.379
871.50	31.480
871.67	31.613
871.84	31.880
872.01	31.838
872.18	31.991
872.35	32.428
872.52	32.573
872.69	32.452
872.86	32.399
873.03	32.593
873.20	32.528
873.37	32.498
873.54	32.646
873.71	32.441
873.88	32.236
874.05	32.227
874.21	32.232
874.38	31.703
874.55	31.872
874.72	31.540
874.89	31.365
875.06	31.505
875.23	31.871
875.40	31.823
875.57	31.928
875.74	31.941
875.91	32.046
876.08	31.865
876.24	32.114
876.41	32.228
876.58	32.430
876.75	32.424
876.92	32.460
877.09	32.108
877.26	32.246
877.43	32.220
877.60	32.253
877.77	32.194
877.93	32.367
878.10	32.311
878.27	32.202
878.44	31.806
878.61	31.985
878.78	32.214
878.95	32.474
879.12	32.513
879.28	32.628
879.45	32.678
879.62	32.821
879.79	32.447
879.96	32.572
880.13	32.761
880.30	33.320
880.47	33.234
880.63	33.183
880.80	33.142
880.97	33.269
881.14	33.414
881.31	33.462
881.48	33.493
881.65	33.903
881.81	34.160
881.98	34.339
882.15	34.355
882.32	34.421
882.49	34.372
882.66	34.263
882.82	34.037
882.99	33.829
883.16	33.649
883.33	33.482
883.50	33.331
883.67	33.201
883.83	33.066
884.00	32.951
884.17	32.834
884.34	32.713
884.51	32.603
884.68	32.537
884.84	32.487
885.01	32.492
885.18	32.495
885.35	32.472
885.52	32.435
885.68	32.437
885.85	32.419
886.02	32.315
886.19	31.923
886.36	32.006
886.53	32.510
886.69	32.550
>>>>>End Spectral Data<<<<<
