OOIBase32 Version 2.0.6.5 Data File
++++++++++++++++++++++++++++++++++++
Date: 03-24-2011, 10:55:58
User: Valued Ocean Optics Customer
Spectrometer Serial Number: USB4C01507
Spectrometer Channel: Master
Integration Time (msec): 46
Spectra Averaged: 30
Boxcar Smoothing: 5
Correct for Electrical Dark: Enabled
Time Normalized: Disabled
Dual-beam Reference: Disabled
Reference Channel: Master
Temperature: Not acquired
Spectrometer Type: S4000
ADC Type: USB4000
Number of Pixels in File: 3648
Graph Title: 
>>>>>Begin Spectral Data<<<<<
179.17	1134.582
179.39	3117.192
179.60	248.112
179.82	101.639
180.03	421.069
180.24	-184.142
180.46	9.875
180.67	-193.378
180.89	79.798
181.10	-44.400
181.31	54.263
181.53	-155.958
181.74	2.784
181.96	507.758
182.17	176.655
182.39	-43.658
182.60	97.204
182.81	138.566
183.03	-9.632
183.24	-338.977
183.46	41.275
183.67	20.860
183.88	9.563
184.10	19.662
184.31	15.967
184.53	18.666
184.74	9.280
184.96	14.000
185.17	7.723
185.38	6.958
185.60	12.133
185.81	9.638
186.03	18.376
186.24	20.423
186.45	20.757
186.67	16.813
186.88	13.430
187.10	15.603
187.31	6.772
187.52	5.731
187.74	1.669
187.95	-0.507
188.17	-8.283
188.38	-18.137
188.59	-21.961
188.81	-36.177
189.02	-17.912
189.24	-10.815
189.45	-6.836
189.66	0.812
189.88	-3.763
190.09	-4.830
190.30	-1.410
190.52	7.031
190.73	6.354
190.95	10.351
191.16	14.122
191.37	7.638
191.59	-0.997
191.80	-1.070
192.02	-1.499
192.23	2.624
192.44	2.718
192.66	-1.379
192.87	-13.134
193.08	-1.868
193.30	0.911
193.51	7.529
193.73	11.478
193.94	24.025
194.15	25.389
194.37	26.253
194.58	28.249
194.79	18.336
195.01	19.447
195.22	24.633
195.44	21.714
195.65	13.212
195.86	11.118
196.08	10.746
196.29	11.652
196.50	6.940
196.72	9.063
196.93	2.969
197.14	7.415
197.36	11.316
197.57	5.930
197.79	3.815
198.00	7.918
198.21	9.960
198.43	13.219
198.64	12.208
198.85	15.377
199.07	12.497
199.28	11.597
199.49	14.094
199.71	13.783
199.92	22.927
200.13	19.676
200.35	22.586
200.56	16.884
200.78	6.472
200.99	2.138
201.20	3.415
201.42	3.517
201.63	1.826
201.84	5.507
202.06	6.318
202.27	1.543
202.48	5.231
202.70	-4.524
202.91	-0.913
203.12	4.094
203.34	4.187
203.55	2.944
203.76	5.461
203.98	10.305
204.19	9.493
204.40	6.424
204.62	8.592
204.83	4.040
205.04	6.131
205.26	3.980
205.47	5.341
205.68	4.402
205.90	4.760
206.11	1.259
206.32	2.454
206.54	0.262
206.75	0.883
206.96	-1.297
207.18	1.432
207.39	6.054
207.60	12.464
207.82	9.949
208.03	12.725
208.24	11.862
208.45	15.650
208.67	9.159
208.88	8.571
209.09	9.070
209.31	10.172
209.52	6.477
209.73	10.245
209.95	10.921
210.16	12.119
210.37	10.901
210.59	13.992
210.80	12.660
211.01	16.573
211.23	19.353
211.44	16.010
211.65	13.788
211.86	14.829
212.08	8.223
212.29	4.354
212.50	3.079
212.72	-0.407
212.93	-5.930
213.14	-8.001
213.36	-9.324
213.57	-12.961
213.78	-7.840
213.99	-5.375
214.21	-0.014
214.42	5.577
214.63	4.507
214.85	1.921
215.06	3.582
215.27	9.071
215.49	9.354
215.70	10.694
215.91	9.890
216.12	7.518
216.34	7.776
216.55	4.992
216.76	4.410
216.98	4.753
217.19	7.605
217.40	10.451
217.61	7.058
217.83	9.302
218.04	6.841
218.25	8.190
218.47	10.750
218.68	10.517
218.89	10.001
219.10	9.285
219.32	7.842
219.53	7.996
219.74	7.438
219.95	6.460
220.17	5.508
220.38	6.210
220.59	6.083
220.81	4.644
221.02	5.043
221.23	5.883
221.44	5.514
221.66	8.331
221.87	9.151
222.08	9.215
222.29	10.489
222.51	10.961
222.72	10.288
222.93	11.532
223.14	12.189
223.36	10.409
223.57	9.643
223.78	9.901
223.99	8.426
224.21	7.318
224.42	6.130
224.63	5.329
224.84	4.607
225.06	4.773
225.27	4.433
225.48	4.824
225.69	6.205
225.91	6.595
226.12	5.893
226.33	6.587
226.54	6.018
226.76	6.348
226.97	6.634
227.18	6.506
227.39	6.379
227.61	6.257
227.82	6.042
228.03	5.898
228.24	5.814
228.46	6.003
228.67	5.958
228.88	6.164
229.09	6.103
229.31	6.019
229.52	6.107
229.73	6.417
229.94	6.348
230.16	6.562
230.37	6.698
230.58	6.709
230.79	6.473
231.00	6.384
231.22	6.445
231.43	6.277
231.64	6.156
231.85	5.945
232.07	5.440
232.28	5.688
232.49	5.325
232.70	5.218
232.91	5.439
233.13	5.798
233.34	5.643
233.55	5.716
233.76	5.803
233.98	6.057
234.19	5.854
234.40	5.814
234.61	5.643
234.82	5.853
235.04	5.704
235.25	5.876
235.46	5.596
235.67	5.428
235.88	5.334
236.10	5.390
236.31	4.989
236.52	5.252
236.73	5.743
236.94	6.183
237.16	5.915
237.37	6.159
237.58	5.378
237.79	5.303
238.01	5.312
238.22	4.981
238.43	4.961
238.64	5.347
238.85	5.218
239.06	4.650
239.28	4.173
239.49	4.205
239.70	4.314
239.91	4.688
240.12	4.700
240.34	4.743
240.55	4.955
240.76	5.004
240.97	4.826
241.18	4.901
241.40	4.893
241.61	4.954
241.82	5.032
242.03	5.058
242.24	4.926
242.45	4.976
242.67	5.035
242.88	4.880
243.09	4.732
243.30	4.740
243.51	4.889
243.73	4.896
243.94	4.866
244.15	4.731
244.36	4.571
244.57	4.896
244.78	4.920
245.00	4.844
245.21	4.838
245.42	4.792
245.63	4.730
245.84	4.575
246.05	4.527
246.27	4.528
246.48	4.530
246.69	4.499
246.90	4.505
247.11	4.402
247.32	4.399
247.54	4.428
247.75	4.437
247.96	4.394
248.17	4.476
248.38	4.585
248.59	4.641
248.81	4.635
249.02	4.660
249.23	4.441
249.44	4.496
249.65	4.441
249.86	4.118
250.07	4.285
250.29	4.370
250.50	4.132
250.71	3.900
250.92	3.889
251.13	3.880
251.34	4.032
251.55	4.037
251.77	4.163
251.98	4.206
252.19	4.289
252.40	4.157
252.61	4.237
252.82	4.244
253.03	4.327
253.25	4.323
253.46	4.167
253.67	4.065
253.88	4.125
254.09	3.922
254.30	3.807
254.51	3.933
254.73	4.069
254.94	4.139
255.15	4.177
255.36	4.128
255.57	3.956
255.78	4.035
255.99	3.950
256.20	4.055
256.42	4.216
256.63	4.145
256.84	4.017
257.05	3.901
257.26	3.813
257.47	3.782
257.68	3.894
257.89	3.950
258.10	4.014
258.32	3.918
258.53	3.890
258.74	3.826
258.95	3.833
259.16	3.834
259.37	3.815
259.58	3.770
259.79	3.807
260.00	3.769
260.22	3.711
260.43	3.692
260.64	3.716
260.85	3.669
261.06	3.702
261.27	3.658
261.48	3.681
261.69	3.642
261.90	3.669
262.12	3.565
262.33	3.642
262.54	3.619
262.75	3.659
262.96	3.645
263.17	3.649
263.38	3.659
263.59	3.848
263.80	3.783
264.01	3.925
264.22	3.764
264.44	3.829
264.65	3.656
264.86	3.844
265.07	3.641
265.28	3.616
265.49	3.663
265.70	3.583
265.91	3.505
266.12	3.499
266.33	3.463
266.54	3.563
266.75	3.543
266.97	3.651
267.18	3.666
267.39	3.730
267.60	3.753
267.81	3.750
268.02	3.630
268.23	3.653
268.44	3.635
268.65	3.611
268.86	3.577
269.07	3.661
269.28	3.521
269.49	3.520
269.70	3.532
269.92	3.457
270.13	3.424
270.34	3.635
270.55	3.572
270.76	3.594
270.97	3.600
271.18	3.622
271.39	3.482
271.60	3.558
271.81	3.579
272.02	3.579
272.23	3.655
272.44	3.721
272.65	3.632
272.86	3.579
273.07	3.483
273.28	3.530
273.49	3.527
273.71	3.558
273.92	3.566
274.13	3.388
274.34	3.350
274.55	3.248
274.76	3.108
274.97	3.081
275.18	3.057
275.39	3.242
275.60	3.206
275.81	3.219
276.02	3.140
276.23	3.152
276.44	3.265
276.65	3.353
276.86	3.293
277.07	3.347
277.28	3.357
277.49	3.527
277.70	3.359
277.91	3.345
278.12	3.208
278.33	3.209
278.54	3.156
278.75	3.115
278.96	3.025
279.17	3.137
279.39	3.088
279.60	3.044
279.81	2.922
280.02	2.989
280.23	2.951
280.44	2.953
280.65	3.072
280.86	3.112
281.07	3.156
281.28	3.270
281.49	3.174
281.70	3.226
281.91	3.271
282.12	3.368
282.33	3.420
282.54	3.401
282.75	3.505
282.96	3.550
283.17	3.490
283.38	3.512
283.59	3.451
283.80	3.392
284.01	3.329
284.22	3.403
284.43	3.357
284.64	3.280
284.85	3.382
285.06	3.366
285.27	3.296
285.48	3.290
285.69	3.205
285.90	3.239
286.11	3.343
286.32	3.346
286.53	3.250
286.74	3.293
286.95	3.283
287.16	3.183
287.37	3.132
287.58	3.086
287.79	3.093
288.00	3.130
288.21	2.994
288.42	2.888
288.63	2.942
288.84	2.991
289.05	2.947
289.26	3.015
289.47	2.996
289.68	3.019
289.89	3.028
290.10	2.983
290.31	2.915
290.51	2.975
290.72	3.039
290.93	3.038
291.14	2.952
291.35	2.931
291.56	2.883
291.77	2.858
291.98	2.823
292.19	2.785
292.40	2.849
292.61	2.873
292.82	2.854
293.03	2.897
293.24	2.896
293.45	2.997
293.66	3.006
293.87	2.990
294.08	2.914
294.29	2.977
294.50	3.001
294.71	3.026
294.92	3.067
295.13	3.070
295.34	2.957
295.55	2.938
295.76	2.878
295.96	2.873
296.17	2.916
296.38	3.030
296.59	3.006
296.80	3.035
297.01	2.972
297.22	2.947
297.43	2.956
297.64	3.006
297.85	2.951
298.06	2.939
298.27	2.908
298.48	2.897
298.69	2.844
298.90	2.838
299.11	2.824
299.32	2.818
299.53	2.799
299.73	2.805
299.94	2.836
300.15	2.881
300.36	2.911
300.57	2.981
300.78	2.950
300.99	2.935
301.20	2.885
301.41	2.893
301.62	2.928
301.83	2.955
302.04	2.875
302.25	2.840
302.45	2.802
302.66	2.794
302.87	2.796
303.08	2.752
303.29	2.804
303.50	2.833
303.71	2.860
303.92	2.820
304.13	2.818
304.34	2.869
304.55	2.814
304.76	2.861
304.96	2.874
305.17	2.805
305.38	2.815
305.59	2.790
305.80	2.824
306.01	2.767
306.22	2.747
306.43	2.772
306.64	2.649
306.85	2.684
307.06	2.682
307.26	2.636
307.47	2.545
307.68	2.597
307.89	2.515
308.10	2.458
308.31	2.489
308.52	2.580
308.73	2.574
308.94	2.723
309.14	2.748
309.35	2.742
309.56	2.746
309.77	2.779
309.98	2.767
310.19	2.822
310.40	2.833
310.61	2.800
310.82	2.716
311.02	2.709
311.23	2.620
311.44	2.554
311.65	2.504
311.86	2.527
312.07	2.568
312.28	2.481
312.49	2.399
312.69	2.371
312.90	2.326
313.11	2.346
313.32	2.292
313.53	2.325
313.74	2.342
313.95	2.400
314.16	2.362
314.36	2.349
314.57	2.467
314.78	2.568
314.99	2.607
315.20	2.658
315.41	2.628
315.62	2.590
315.82	2.572
316.03	2.556
316.24	2.550
316.45	2.613
316.66	2.600
316.87	2.577
317.08	2.516
317.28	2.533
317.49	2.464
317.70	2.486
317.91	2.533
318.12	2.541
318.33	2.535
318.54	2.490
318.74	2.466
318.95	2.468
319.16	2.460
319.37	2.468
319.58	2.413
319.79	2.410
319.99	2.401
320.20	2.394
320.41	2.405
320.62	2.445
320.83	2.443
321.04	2.428
321.24	2.413
321.45	2.447
321.66	2.446
321.87	2.468
322.08	2.525
322.29	2.531
322.49	2.565
322.70	2.544
322.91	2.519
323.12	2.536
323.33	2.516
323.54	2.493
323.74	2.467
323.95	2.511
324.16	2.525
324.37	2.472
324.58	2.450
324.79	2.424
324.99	2.384
325.20	2.432
325.41	2.425
325.62	2.434
325.83	2.491
326.03	2.388
326.24	2.340
326.45	2.303
326.66	2.289
326.87	2.286
327.07	2.281
327.28	2.321
327.49	2.274
327.70	2.266
327.91	2.217
328.11	2.146
328.32	2.193
328.53	2.264
328.74	2.267
328.95	2.319
329.15	2.358
329.36	2.408
329.57	2.385
329.78	2.406
329.99	2.403
330.19	2.429
330.40	2.445
330.61	2.494
330.82	2.416
331.03	2.404
331.23	2.454
331.44	2.431
331.65	2.398
331.86	2.451
332.07	2.425
332.27	2.422
332.48	2.392
332.69	2.413
332.90	2.380
333.10	2.397
333.31	2.401
333.52	2.312
333.73	2.319
333.94	2.292
334.14	2.264
334.35	2.282
334.56	2.297
334.77	2.268
334.97	2.263
335.18	2.230
335.39	2.223
335.60	2.226
335.80	2.201
336.01	2.170
336.22	2.117
336.43	2.089
336.64	2.095
336.84	2.097
337.05	2.099
337.26	2.109
337.47	2.140
337.67	2.146
337.88	2.123
338.09	2.131
338.30	2.155
338.50	2.209
338.71	2.233
338.92	2.218
339.13	2.219
339.33	2.282
339.54	2.222
339.75	2.235
339.96	2.238
340.16	2.195
340.37	2.252
340.58	2.260
340.79	2.269
340.99	2.266
341.20	2.235
341.41	2.237
341.62	2.204
341.82	2.250
342.03	2.222
342.24	2.207
342.44	2.294
342.65	2.280
342.86	2.231
343.07	2.220
343.27	2.242
343.48	2.231
343.69	2.203
343.90	2.248
344.10	2.167
344.31	2.183
344.52	2.200
344.72	2.148
344.93	2.097
345.14	2.130
345.35	2.095
345.55	2.085
345.76	2.085
345.97	2.092
346.18	2.081
346.38	2.145
346.59	2.142
346.80	2.139
347.00	2.144
347.21	2.173
347.42	2.209
347.62	2.218
347.83	2.167
348.04	2.156
348.25	2.144
348.45	2.148
348.66	2.134
348.87	2.146
349.07	2.105
349.28	2.103
349.49	2.098
349.70	2.083
349.90	2.074
350.11	2.138
350.32	2.140
350.52	2.139
350.73	2.112
350.94	2.129
351.14	2.115
351.35	2.154
351.56	2.164
351.76	2.162
351.97	2.141
352.18	2.180
352.39	2.147
352.59	2.179
352.80	2.170
353.01	2.192
353.21	2.176
353.42	2.162
353.63	2.100
353.83	2.077
354.04	2.100
354.25	2.070
354.45	2.034
354.66	2.043
354.87	2.003
355.07	2.022
355.28	2.025
355.49	2.052
355.69	2.068
355.90	2.108
356.11	2.143
356.31	2.145
356.52	2.190
356.73	2.215
356.93	2.162
357.14	2.168
357.35	2.188
357.55	2.178
357.76	2.131
357.97	2.094
358.17	2.125
358.38	2.120
358.59	2.112
358.79	2.080
359.00	2.042
359.21	2.090
359.41	2.084
359.62	2.058
359.83	2.026
360.03	2.054
360.24	2.098
360.44	2.088
360.65	2.041
360.86	2.042
361.06	2.046
361.27	2.064
361.48	2.052
361.68	2.100
361.89	2.100
362.10	2.123
362.30	2.102
362.51	2.067
362.72	2.065
362.92	2.099
363.13	2.047
363.33	2.030
363.54	2.035
363.75	2.017
363.95	1.985
364.16	1.963
364.37	1.981
364.57	2.017
364.78	2.002
364.98	2.001
365.19	1.997
365.40	2.056
365.60	2.072
365.81	2.107
366.02	2.112
366.22	2.093
366.43	2.135
366.63	2.100
366.84	2.069
367.05	2.108
367.25	2.073
367.46	2.036
367.66	2.028
367.87	2.058
368.08	2.043
368.28	2.045
368.49	2.052
368.69	2.010
368.90	2.025
369.11	2.034
369.31	2.010
369.52	2.046
369.72	2.060
369.93	2.053
370.14	2.041
370.34	2.004
370.55	2.008
370.75	2.033
370.96	2.032
371.17	2.034
371.37	2.006
371.58	2.024
371.78	2.000
371.99	2.017
372.20	2.006
372.40	1.995
372.61	2.001
372.81	2.023
373.02	2.015
373.23	2.023
373.43	2.025
373.64	2.018
373.84	2.014
374.05	2.020
374.25	1.998
374.46	1.985
374.67	1.965
374.87	1.990
375.08	1.957
375.28	1.931
375.49	1.937
375.69	1.946
375.90	1.967
376.11	1.959
376.31	1.939
376.52	1.956
376.72	1.957
376.93	1.947
377.13	1.925
377.34	1.946
377.55	1.977
377.75	1.975
377.96	1.920
378.16	1.923
378.37	1.946
378.57	1.963
378.78	1.976
378.98	1.974
379.19	1.998
379.40	1.973
379.60	1.948
379.81	1.927
380.01	1.902
380.22	1.927
380.42	1.920
380.63	1.882
380.83	1.870
381.04	1.851
381.24	1.853
381.45	1.829
381.66	1.854
381.86	1.869
382.07	1.877
382.27	1.902
382.48	1.900
382.68	1.896
382.89	1.910
383.09	1.924
383.30	1.916
383.50	1.911
383.71	1.908
383.91	1.924
384.12	1.922
384.32	1.916
384.53	1.914
384.73	1.918
384.94	1.930
385.15	1.926
385.35	1.908
385.56	1.922
385.76	1.898
385.97	1.912
386.17	1.867
386.38	1.861
386.58	1.849
386.79	1.872
386.99	1.866
387.20	1.862
387.40	1.872
387.61	1.899
387.81	1.869
388.02	1.896
388.22	1.901
388.43	1.922
388.63	1.914
388.84	1.940
389.04	1.937
389.25	1.949
389.45	1.916
389.66	1.912
389.86	1.889
390.07	1.925
390.27	1.916
390.48	1.926
390.68	1.944
390.89	1.961
391.09	1.976
391.30	1.969
391.50	1.971
391.71	2.008
391.91	1.995
392.12	2.028
392.32	2.007
392.53	2.024
392.73	2.024
392.94	2.008
393.14	2.007
393.35	2.001
393.55	1.974
393.75	1.961
393.96	1.954
394.16	1.955
394.37	1.919
394.57	1.934
394.78	1.936
394.98	1.904
395.19	1.883
395.39	1.869
395.60	1.854
395.80	1.874
396.01	1.874
396.21	1.871
396.42	1.874
396.62	1.895
396.83	1.888
397.03	1.896
397.23	1.917
397.44	1.948
397.64	1.965
397.85	1.966
398.05	1.965
398.26	1.971
398.46	1.969
398.67	1.980
398.87	1.972
399.08	1.956
399.28	1.943
399.48	1.939
399.69	1.922
399.89	1.945
400.10	1.956
400.30	1.925
400.51	1.919
400.71	1.934
400.92	1.915
401.12	1.928
401.32	1.933
401.53	1.935
401.73	1.918
401.94	1.949
402.14	1.911
402.35	1.907
402.55	1.922
402.75	1.934
402.96	1.930
403.16	1.953
403.37	1.938
403.57	1.958
403.78	1.953
403.98	1.978
404.18	1.961
404.39	1.960
404.59	1.955
404.80	1.954
405.00	1.941
405.21	1.946
405.41	1.936
405.61	1.934
405.82	1.933
406.02	1.939
406.23	1.931
406.43	1.926
406.63	1.946
406.84	1.955
407.04	1.952
407.25	1.970
407.45	1.986
407.65	1.984
407.86	1.971
408.06	1.940
408.27	1.916
408.47	1.948
408.67	1.937
408.88	1.920
409.08	1.891
409.29	1.918
409.49	1.904
409.69	1.880
409.90	1.891
410.10	1.917
410.31	1.944
410.51	1.975
410.71	1.956
410.92	1.948
411.12	1.941
411.33	1.962
411.53	1.944
411.73	1.934
411.94	1.936
412.14	1.924
412.34	1.911
412.55	1.908
412.75	1.895
412.96	1.894
413.16	1.903
413.36	1.899
413.57	1.888
413.77	1.875
413.97	1.901
414.18	1.916
414.38	1.921
414.59	1.923
414.79	1.904
414.99	1.889
415.20	1.886
415.40	1.919
415.60	1.921
415.81	1.918
416.01	1.924
416.21	1.906
416.42	1.897
416.62	1.904
416.83	1.894
417.03	1.920
417.23	1.925
417.44	1.928
417.64	1.914
417.84	1.919
418.05	1.933
418.25	1.950
418.45	1.954
418.66	1.949
418.86	1.923
419.06	1.936
419.27	1.920
419.47	1.933
419.67	1.919
419.88	1.916
420.08	1.909
420.28	1.895
420.49	1.876
420.69	1.880
420.89	1.883
421.10	1.901
421.30	1.898
421.50	1.909
421.71	1.906
421.91	1.910
422.11	1.918
422.32	1.934
422.52	1.933
422.72	1.957
422.93	1.969
423.13	1.968
423.33	1.970
423.54	1.968
423.74	1.954
423.94	1.950
424.15	1.952
424.35	1.958
424.55	1.948
424.76	1.961
424.96	1.948
425.16	1.938
425.36	1.934
425.57	1.933
425.77	1.928
425.97	1.938
426.18	1.944
426.38	1.939
426.58	1.938
426.79	1.951
426.99	1.933
427.19	1.943
427.39	1.954
427.60	1.965
427.80	1.968
428.00	1.994
428.21	2.001
428.41	1.995
428.61	2.004
428.82	1.982
429.02	1.983
429.22	2.014
429.42	2.014
429.63	1.990
429.83	1.981
430.03	1.978
430.24	1.963
430.44	1.980
430.64	1.982
430.84	1.985
431.05	1.988
431.25	1.992
431.45	1.972
431.65	1.959
431.86	1.960
432.06	1.975
432.26	1.980
432.47	1.988
432.67	1.979
432.87	1.982
433.07	1.975
433.28	1.987
433.48	1.974
433.68	1.984
433.88	1.994
434.09	1.999
434.29	1.988
434.49	1.985
434.69	1.977
434.90	1.971
435.10	1.960
435.30	1.977
435.51	1.977
435.71	2.002
435.91	1.987
436.11	1.978
436.32	1.972
436.52	1.989
436.72	1.996
436.92	2.000
437.13	1.998
437.33	1.996
437.53	1.980
437.73	1.962
437.93	1.951
438.14	1.958
438.34	1.950
438.54	1.961
438.74	1.965
438.95	1.949
439.15	1.955
439.35	1.959
439.55	1.968
439.76	1.982
439.96	1.997
440.16	2.004
440.36	2.010
440.56	2.020
440.77	2.008
440.97	1.997
441.17	2.012
441.37	2.020
441.58	2.021
441.78	2.035
441.98	2.033
442.18	2.018
442.38	2.012
442.59	2.015
442.79	2.023
442.99	2.053
443.19	2.046
443.40	2.046
443.60	2.048
443.80	2.043
444.00	2.032
444.20	2.034
444.41	2.032
444.61	2.040
444.81	2.041
445.01	2.041
445.21	2.032
445.42	2.047
445.62	2.047
445.82	2.032
446.02	2.037
446.22	2.038
446.43	2.034
446.63	2.043
446.83	2.031
447.03	2.029
447.23	2.032
447.44	2.040
447.64	2.035
447.84	2.026
448.04	2.032
448.24	2.031
448.44	2.026
448.65	2.026
448.85	2.020
449.05	2.033
449.25	2.029
449.45	2.034
449.65	2.038
449.86	2.055
450.06	2.068
450.26	2.071
450.46	2.069
450.66	2.077
450.87	2.075
451.07	2.085
451.27	2.077
451.47	2.085
451.67	2.073
451.87	2.069
452.08	2.050
452.28	2.050
452.48	2.048
452.68	2.049
452.88	2.053
453.08	2.070
453.28	2.056
453.49	2.065
453.69	2.070
453.89	2.064
454.09	2.067
454.29	2.080
454.49	2.082
454.70	2.078
454.90	2.086
455.10	2.086
455.30	2.058
455.50	2.086
455.70	2.082
455.90	2.081
456.11	2.081
456.31	2.071
456.51	2.066
456.71	2.065
456.91	2.085
457.11	2.090
457.31	2.083
457.51	2.115
457.72	2.100
457.92	2.105
458.12	2.095
458.32	2.108
458.52	2.111
458.72	2.116
458.92	2.109
459.12	2.101
459.33	2.080
459.53	2.091
459.73	2.096
459.93	2.101
460.13	2.107
460.33	2.117
460.53	2.113
460.73	2.103
460.93	2.104
461.14	2.113
461.34	2.111
461.54	2.133
461.74	2.131
461.94	2.116
462.14	2.121
462.34	2.101
462.54	2.102
462.74	2.106
462.95	2.111
463.15	2.107
463.35	2.096
463.55	2.109
463.75	2.113
463.95	2.117
464.15	2.126
464.35	2.131
464.55	2.145
464.75	2.140
464.95	2.138
465.16	2.143
465.36	2.149
465.56	2.154
465.76	2.158
465.96	2.164
466.16	2.168
466.36	2.164
466.56	2.151
466.76	2.155
466.96	2.164
467.16	2.169
467.36	2.167
467.57	2.170
467.77	2.174
467.97	2.170
468.17	2.159
468.37	2.138
468.57	2.144
468.77	2.151
468.97	2.145
469.17	2.148
469.37	2.148
469.57	2.164
469.77	2.172
469.97	2.175
470.17	2.181
470.37	2.184
470.57	2.194
470.78	2.182
470.98	2.185
471.18	2.198
471.38	2.188
471.58	2.202
471.78	2.202
471.98	2.200
472.18	2.206
472.38	2.202
472.58	2.213
472.78	2.236
472.98	2.247
473.18	2.253
473.38	2.245
473.58	2.257
473.78	2.242
473.98	2.243
474.18	2.251
474.38	2.241
474.58	2.259
474.78	2.270
474.98	2.262
475.18	2.273
475.38	2.281
475.58	2.288
475.79	2.274
475.99	2.276
476.19	2.277
476.39	2.266
476.59	2.274
476.79	2.264
476.99	2.251
477.19	2.256
477.39	2.244
477.59	2.244
477.79	2.242
477.99	2.248
478.19	2.246
478.39	2.250
478.59	2.251
478.79	2.250
478.99	2.262
479.19	2.269
479.39	2.266
479.59	2.281
479.79	2.277
479.99	2.292
480.19	2.293
480.39	2.301
480.59	2.304
480.79	2.317
480.99	2.319
481.19	2.315
481.39	2.312
481.59	2.320
481.79	2.322
481.99	2.326
482.19	2.320
482.39	2.332
482.59	2.340
482.79	2.341
482.99	2.339
483.19	2.365
483.39	2.404
483.59	2.435
483.79	2.437
483.99	2.428
484.19	2.418
484.39	2.418
484.58	2.415
484.78	2.418
484.98	2.417
485.18	2.421
485.38	2.413
485.58	2.383
485.78	2.347
485.98	2.342
486.18	2.350
486.38	2.369
486.58	2.377
486.78	2.384
486.98	2.387
487.18	2.399
487.38	2.402
487.58	2.404
487.78	2.410
487.98	2.418
488.18	2.420
488.38	2.417
488.58	2.415
488.78	2.416
488.98	2.421
489.18	2.424
489.37	2.423
489.57	2.431
489.77	2.446
489.97	2.451
490.17	2.453
490.37	2.455
490.57	2.462
490.77	2.469
490.97	2.470
491.17	2.472
491.37	2.479
491.57	2.488
491.77	2.487
491.97	2.485
492.17	2.485
492.37	2.490
492.56	2.492
492.76	2.493
492.96	2.499
493.16	2.509
493.36	2.520
493.56	2.517
493.76	2.512
493.96	2.514
494.16	2.511
494.36	2.513
494.56	2.515
494.76	2.524
494.95	2.539
495.15	2.541
495.35	2.531
495.55	2.526
495.75	2.545
495.95	2.553
496.15	2.563
496.35	2.569
496.55	2.578
496.75	2.585
496.95	2.591
497.14	2.595
497.34	2.608
497.54	2.621
497.74	2.629
497.94	2.633
498.14	2.637
498.34	2.646
498.54	2.654
498.74	2.665
498.93	2.677
499.13	2.682
499.33	2.690
499.53	2.691
499.73	2.706
499.93	2.713
500.13	2.717
500.33	2.718
500.53	2.723
500.72	2.723
500.92	2.723
501.12	2.726
501.32	2.730
501.52	2.721
501.72	2.720
501.92	2.711
502.12	2.706
502.31	2.708
502.51	2.723
502.71	2.732
502.91	2.738
503.11	2.745
503.31	2.747
503.51	2.742
503.70	2.758
503.90	2.768
504.10	2.780
504.30	2.787
504.50	2.787
504.70	2.793
504.90	2.788
505.09	2.804
505.29	2.805
505.49	2.804
505.69	2.824
505.89	2.834
506.09	2.835
506.29	2.843
506.48	2.855
506.68	2.870
506.88	2.879
507.08	2.895
507.28	2.894
507.48	2.907
507.67	2.913
507.87	2.905
508.07	2.904
508.27	2.916
508.47	2.913
508.67	2.917
508.86	2.915
509.06	2.917
509.26	2.920
509.46	2.928
509.66	2.928
509.85	2.935
510.05	2.953
510.25	2.957
510.45	2.959
510.65	2.961
510.85	2.962
511.04	2.973
511.24	2.975
511.44	2.983
511.64	2.984
511.84	2.994
512.03	3.003
512.23	3.003
512.43	3.010
512.63	3.016
512.83	3.036
513.02	3.050
513.22	3.052
513.42	3.066
513.62	3.070
513.82	3.084
514.01	3.094
514.21	3.099
514.41	3.100
514.61	3.115
514.81	3.122
515.00	3.118
515.20	3.118
515.40	3.135
515.60	3.131
515.80	3.146
515.99	3.144
516.19	3.140
516.39	3.156
516.59	3.166
516.78	3.170
516.98	3.180
517.18	3.181
517.38	3.190
517.58	3.188
517.77	3.201
517.97	3.193
518.17	3.204
518.37	3.221
518.56	3.223
518.76	3.237
518.96	3.245
519.16	3.238
519.36	3.252
519.55	3.256
519.75	3.265
519.95	3.278
520.15	3.285
520.34	3.290
520.54	3.301
520.74	3.312
520.94	3.308
521.13	3.314
521.33	3.330
521.53	3.337
521.73	3.352
521.92	3.356
522.12	3.364
522.32	3.381
522.52	3.389
522.71	3.389
522.91	3.388
523.11	3.401
523.31	3.403
523.50	3.408
523.70	3.418
523.90	3.420
524.09	3.434
524.29	3.430
524.49	3.438
524.69	3.451
524.88	3.461
525.08	3.466
525.28	3.468
525.48	3.484
525.67	3.496
525.87	3.495
526.07	3.503
526.26	3.507
526.46	3.526
526.66	3.531
526.86	3.531
527.05	3.536
527.25	3.559
527.45	3.575
527.64	3.576
527.84	3.593
528.04	3.611
528.24	3.628
528.43	3.638
528.63	3.648
528.83	3.657
529.02	3.664
529.22	3.667
529.42	3.667
529.62	3.668
529.81	3.676
530.01	3.678
530.21	3.678
530.40	3.676
530.60	3.674
530.80	3.671
530.99	3.673
531.19	3.679
531.39	3.686
531.58	3.690
531.78	3.709
531.98	3.711
532.18	3.716
532.37	3.735
532.57	3.747
532.77	3.765
532.96	3.773
533.16	3.785
533.36	3.797
533.55	3.811
533.75	3.819
533.95	3.823
534.14	3.829
534.34	3.846
534.54	3.851
534.73	3.865
534.93	3.875
535.13	3.887
535.32	3.895
535.52	3.904
535.72	3.916
535.91	3.930
536.11	3.936
536.31	3.952
536.50	3.961
536.70	3.965
536.90	3.969
537.09	3.975
537.29	3.977
537.48	3.991
537.68	3.989
537.88	3.987
538.07	3.992
538.27	4.003
538.47	4.008
538.66	4.010
538.86	4.020
539.06	4.025
539.25	4.037
539.45	4.052
539.65	4.055
539.84	4.085
540.04	4.109
540.23	4.125
540.43	4.134
540.63	4.152
540.82	4.156
541.02	4.159
541.22	4.168
541.41	4.175
541.61	4.177
541.80	4.180
542.00	4.175
542.20	4.177
542.39	4.180
542.59	4.184
542.79	4.189
542.98	4.196
543.18	4.204
543.37	4.209
543.57	4.210
543.77	4.224
543.96	4.229
544.16	4.237
544.35	4.247
544.55	4.261
544.75	4.271
544.94	4.276
545.14	4.290
545.33	4.304
545.53	4.314
545.73	4.329
545.92	4.334
546.12	4.349
546.31	4.361
546.51	4.365
546.71	4.371
546.90	4.380
547.10	4.383
547.29	4.394
547.49	4.408
547.69	4.426
547.88	4.431
548.08	4.439
548.27	4.443
548.47	4.447
548.66	4.453
548.86	4.454
549.06	4.460
549.25	4.487
549.45	4.494
549.64	4.494
549.84	4.497
550.03	4.516
550.23	4.523
550.43	4.538
550.62	4.553
550.82	4.575
551.01	4.600
551.21	4.606
551.40	4.614
551.60	4.631
551.80	4.647
551.99	4.659
552.19	4.665
552.38	4.680
552.58	4.692
552.77	4.705
552.97	4.713
553.16	4.702
553.36	4.712
553.56	4.732
553.75	4.736
553.95	4.739
554.14	4.737
554.34	4.747
554.53	4.762
554.73	4.769
554.92	4.771
555.12	4.778
555.31	4.793
555.51	4.825
555.70	4.815
555.90	4.817
556.10	4.822
556.29	4.831
556.49	4.833
556.68	4.843
556.88	4.851
557.07	4.865
557.27	4.884
557.46	4.899
557.66	4.891
557.85	4.909
558.05	4.933
558.24	4.948
558.44	4.972
558.63	4.979
558.83	4.969
559.02	4.981
559.22	5.000
559.41	5.002
559.61	5.004
559.80	5.013
560.00	5.019
560.19	5.031
560.39	5.049
560.58	5.050
560.78	5.076
560.97	5.091
561.17	5.110
561.36	5.112
561.56	5.115
561.75	5.131
561.95	5.148
562.14	5.154
562.34	5.145
562.53	5.146
562.73	5.155
562.92	5.148
563.12	5.171
563.31	5.162
563.51	5.177
563.70	5.192
563.90	5.206
564.09	5.217
564.29	5.226
564.48	5.236
564.68	5.242
564.87	5.256
565.07	5.276
565.26	5.287
565.45	5.306
565.65	5.320
565.84	5.334
566.04	5.334
566.23	5.342
566.43	5.366
566.62	5.375
566.82	5.389
567.01	5.387
567.21	5.391
567.40	5.393
567.60	5.412
567.79	5.395
567.98	5.407
568.18	5.435
568.37	5.450
568.57	5.455
568.76	5.473
568.96	5.484
569.15	5.505
569.35	5.535
569.54	5.542
569.73	5.539
569.93	5.575
570.12	5.575
570.32	5.571
570.51	5.578
570.71	5.588
570.90	5.608
571.09	5.625
571.29	5.648
571.48	5.646
571.68	5.657
571.87	5.675
572.07	5.677
572.26	5.694
572.45	5.701
572.65	5.712
572.84	5.714
573.04	5.722
573.23	5.723
573.43	5.727
573.62	5.739
573.81	5.762
574.01	5.762
574.20	5.769
574.40	5.778
574.59	5.795
574.78	5.784
574.98	5.790
575.17	5.799
575.37	5.807
575.56	5.805
575.75	5.822
575.95	5.828
576.14	5.841
576.34	5.859
576.53	5.856
576.72	5.862
576.92	5.902
577.11	5.921
577.31	5.927
577.50	5.927
577.69	5.958
577.89	5.963
578.08	5.966
578.28	5.976
578.47	5.977
578.66	6.005
578.86	6.028
579.05	6.034
579.24	6.032
579.44	6.043
579.63	6.066
579.83	6.067
580.02	6.068
580.21	6.087
580.41	6.098
580.60	6.120
580.79	6.117
580.99	6.125
581.18	6.122
581.38	6.155
581.57	6.179
581.76	6.191
581.96	6.197
582.15	6.216
582.34	6.214
582.54	6.222
582.73	6.232
582.92	6.250
583.12	6.261
583.31	6.263
583.50	6.255
583.70	6.246
583.89	6.250
584.08	6.257
584.28	6.278
584.47	6.294
584.66	6.314
584.86	6.314
585.05	6.325
585.24	6.324
585.44	6.356
585.63	6.375
585.82	6.383
586.02	6.395
586.21	6.419
586.40	6.415
586.60	6.424
586.79	6.433
586.98	6.438
587.18	6.440
587.37	6.458
587.56	6.450
587.76	6.463
587.95	6.482
588.14	6.501
588.34	6.495
588.53	6.511
588.72	6.521
588.92	6.531
589.11	6.563
589.30	6.579
589.50	6.598
589.69	6.630
589.88	6.630
590.07	6.640
590.27	6.652
590.46	6.678
590.65	6.685
590.85	6.699
591.04	6.701
591.23	6.693
591.43	6.698
591.62	6.697
591.81	6.688
592.00	6.715
592.20	6.728
592.39	6.744
592.58	6.744
592.78	6.765
592.97	6.775
593.16	6.796
593.35	6.814
593.55	6.830
593.74	6.843
593.93	6.865
594.13	6.873
594.32	6.886
594.51	6.898
594.70	6.914
594.90	6.907
595.09	6.913
595.28	6.925
595.47	6.942
595.67	6.952
595.86	6.965
596.05	6.978
596.24	6.990
596.44	6.992
596.63	6.986
596.82	6.989
597.02	6.989
597.21	6.997
597.40	7.014
597.59	7.016
597.79	7.019
597.98	7.022
598.17	7.019
598.36	7.017
598.56	7.042
598.75	7.043
598.94	7.065
599.13	7.090
599.32	7.112
599.52	7.096
599.71	7.120
599.90	7.128
600.09	7.139
600.29	7.152
600.48	7.169
600.67	7.150
600.86	7.175
601.06	7.163
601.25	7.191
601.44	7.184
601.63	7.204
601.82	7.211
602.02	7.240
602.21	7.239
602.40	7.256
602.59	7.264
602.79	7.290
602.98	7.317
603.17	7.349
603.36	7.348
603.55	7.379
603.75	7.385
603.94	7.393
604.13	7.405
604.32	7.412
604.51	7.406
604.71	7.417
604.90	7.424
605.09	7.425
605.28	7.425
605.47	7.441
605.67	7.449
605.86	7.464
606.05	7.479
606.24	7.483
606.43	7.506
606.63	7.534
606.82	7.529
607.01	7.543
607.20	7.545
607.39	7.558
607.59	7.547
607.78	7.557
607.97	7.567
608.16	7.561
608.35	7.574
608.54	7.593
608.74	7.611
608.93	7.651
609.12	7.656
609.31	7.664
609.50	7.684
609.69	7.720
609.89	7.718
610.08	7.729
610.27	7.741
610.46	7.753
610.65	7.763
610.84	7.761
611.04	7.766
611.23	7.786
611.42	7.803
611.61	7.797
611.80	7.779
611.99	7.788
612.19	7.796
612.38	7.813
612.57	7.814
612.76	7.819
612.95	7.839
613.14	7.850
613.33	7.852
613.53	7.864
613.72	7.894
613.91	7.905
614.10	7.933
614.29	7.950
614.48	7.965
614.67	7.991
614.86	7.995
615.06	7.998
615.25	8.002
615.44	8.026
615.63	8.045
615.82	8.040
616.01	8.061
616.20	8.072
616.39	8.095
616.59	8.094
616.78	8.090
616.97	8.109
617.16	8.112
617.35	8.125
617.54	8.124
617.73	8.120
617.92	8.146
618.12	8.153
618.31	8.148
618.50	8.149
618.69	8.162
618.88	8.175
619.07	8.173
619.26	8.187
619.45	8.198
619.64	8.216
619.83	8.243
620.03	8.253
620.22	8.269
620.41	8.304
620.60	8.316
620.79	8.337
620.98	8.337
621.17	8.366
621.36	8.399
621.55	8.423
621.74	8.440
621.93	8.444
622.12	8.459
622.32	8.471
622.51	8.458
622.70	8.464
622.89	8.457
623.08	8.481
623.27	8.488
623.46	8.476
623.65	8.470
623.84	8.475
624.03	8.481
624.22	8.506
624.41	8.507
624.60	8.529
624.79	8.549
624.99	8.573
625.18	8.578
625.37	8.593
625.56	8.607
625.75	8.632
625.94	8.644
626.13	8.666
626.32	8.642
626.51	8.667
626.70	8.669
626.89	8.674
627.08	8.689
627.27	8.697
627.46	8.705
627.65	8.720
627.84	8.719
628.03	8.721
628.22	8.730
628.41	8.757
628.60	8.760
628.79	8.776
628.98	8.781
629.17	8.778
629.37	8.797
629.56	8.802
629.75	8.832
629.94	8.844
630.13	8.864
630.32	8.874
630.51	8.882
630.70	8.893
630.89	8.907
631.08	8.949
631.27	8.959
631.46	8.983
631.65	8.989
631.84	8.989
632.03	8.985
632.22	8.990
632.41	9.002
632.60	9.020
632.79	9.032
632.98	9.039
633.17	9.029
633.36	9.056
633.55	9.050
633.74	9.076
633.93	9.080
634.12	9.103
634.31	9.120
634.50	9.139
634.69	9.150
634.88	9.170
635.07	9.168
635.26	9.164
635.45	9.153
635.64	9.179
635.83	9.175
636.02	9.174
636.21	9.201
636.40	9.232
636.59	9.227
636.78	9.221
636.96	9.235
637.15	9.260
637.34	9.275
637.53	9.298
637.72	9.298
637.91	9.308
638.10	9.334
638.29	9.358
638.48	9.350
638.67	9.348
638.86	9.352
639.05	9.371
639.24	9.389
639.43	9.425
639.62	9.431
639.81	9.442
640.00	9.443
640.19	9.472
640.38	9.470
640.57	9.463
640.76	9.484
640.95	9.497
641.14	9.492
641.32	9.516
641.51	9.523
641.70	9.559
641.89	9.587
642.08	9.631
642.27	9.609
642.46	9.616
642.65	9.618
642.84	9.642
643.03	9.671
643.22	9.673
643.41	9.675
643.60	9.680
643.79	9.693
643.98	9.688
644.16	9.676
644.35	9.691
644.54	9.697
644.73	9.738
644.92	9.755
645.11	9.762
645.30	9.793
645.49	9.800
645.68	9.805
645.87	9.799
646.06	9.797
646.24	9.818
646.43	9.833
646.62	9.840
646.81	9.837
647.00	9.827
647.19	9.830
647.38	9.834
647.57	9.827
647.76	9.855
647.95	9.872
648.13	9.912
648.32	9.919
648.51	9.938
648.70	9.939
648.89	9.964
649.08	9.976
649.27	9.998
649.46	10.004
649.65	10.014
649.83	10.006
650.02	10.016
650.21	10.029
650.40	10.039
650.59	10.037
650.78	10.065
650.97	10.083
651.16	10.101
651.34	10.113
651.53	10.127
651.72	10.143
651.91	10.129
652.10	10.135
652.29	10.146
652.48	10.170
652.66	10.190
652.85	10.208
653.04	10.221
653.23	10.244
653.42	10.263
653.61	10.253
653.80	10.267
653.98	10.288
654.17	10.300
654.36	10.305
654.55	10.302
654.74	10.324
654.93	10.341
655.11	10.315
655.30	10.313
655.49	10.322
655.68	10.351
655.87	10.381
656.06	10.404
656.24	10.414
656.43	10.434
656.62	10.450
656.81	10.460
657.00	10.478
657.19	10.506
657.37	10.512
657.56	10.528
657.75	10.483
657.94	10.503
658.13	10.525
658.31	10.544
658.50	10.550
658.69	10.577
658.88	10.572
659.07	10.569
659.26	10.575
659.44	10.599
659.63	10.604
659.82	10.685
660.01	10.669
660.20	10.685
660.38	10.688
660.57	10.709
660.76	10.709
660.95	10.749
661.14	10.761
661.32	10.803
661.51	10.813
661.70	10.833
661.89	10.828
662.08	10.856
662.26	10.845
662.45	10.844
662.64	10.836
662.83	10.852
663.01	10.842
663.20	10.860
663.39	10.854
663.58	10.864
663.77	10.847
663.95	10.868
664.14	10.872
664.33	10.916
664.52	10.937
664.70	10.936
664.89	10.953
665.08	10.977
665.27	10.978
665.45	10.986
665.64	11.001
665.83	11.038
666.02	11.048
666.20	11.045
666.39	11.045
666.58	11.089
666.77	11.124
666.95	11.120
667.14	11.111
667.33	11.129
667.52	11.137
667.70	11.133
667.89	11.136
668.08	11.153
668.27	11.172
668.45	11.173
668.64	11.176
668.83	11.181
669.02	11.186
669.20	11.196
669.39	11.182
669.58	11.200
669.77	11.222
669.95	11.223
670.14	11.221
670.33	11.228
670.51	11.259
670.70	11.265
670.89	11.264
671.08	11.280
671.26	11.299
671.45	11.321
671.64	11.334
671.82	11.346
672.01	11.361
672.20	11.358
672.39	11.381
672.57	11.394
672.76	11.403
672.95	11.413
673.13	11.429
673.32	11.453
673.51	11.449
673.70	11.433
673.88	11.460
674.07	11.469
674.26	11.497
674.44	11.528
674.63	11.513
674.82	11.519
675.00	11.538
675.19	11.549
675.38	11.553
675.56	11.586
675.75	11.605
675.94	11.585
676.12	11.573
676.31	11.570
676.50	11.554
676.69	11.590
676.87	11.613
677.06	11.602
677.25	11.611
677.43	11.618
677.62	11.649
677.81	11.697
677.99	11.725
678.18	11.771
678.37	11.804
678.55	11.819
678.74	11.831
678.93	11.842
679.11	11.860
679.30	11.872
679.48	11.888
679.67	11.899
679.86	11.901
680.04	11.916
680.23	11.921
680.42	11.927
680.60	11.942
680.79	11.943
680.98	11.960
681.16	11.981
681.35	12.029
681.54	12.014
681.72	12.012
681.91	11.990
682.10	12.004
682.28	12.012
682.47	12.020
682.65	12.038
682.84	12.045
683.03	12.026
683.21	12.037
683.40	12.015
683.59	12.048
683.77	12.059
683.96	12.101
684.14	12.112
684.33	12.123
684.52	12.165
684.70	12.163
684.89	12.174
685.07	12.195
685.26	12.215
685.45	12.216
685.63	12.217
685.82	12.253
686.00	12.269
686.19	12.274
686.38	12.287
686.56	12.280
686.75	12.310
686.93	12.321
687.12	12.334
687.31	12.351
687.49	12.377
687.68	12.383
687.86	12.385
688.05	12.369
688.24	12.389
688.42	12.396
688.61	12.381
688.79	12.381
688.98	12.396
689.17	12.397
689.35	12.395
689.54	12.374
689.72	12.392
689.91	12.403
690.09	12.435
690.28	12.452
690.47	12.466
690.65	12.501
690.84	12.539
691.02	12.555
691.21	12.571
691.39	12.578
691.58	12.650
691.76	12.672
691.95	12.673
692.14	12.695
692.32	12.696
692.51	12.707
692.69	12.700
692.88	12.669
693.06	12.686
693.25	12.726
693.43	12.754
693.62	12.734
693.81	12.728
693.99	12.734
694.18	12.706
694.36	12.700
694.55	12.707
694.73	12.735
694.92	12.765
695.10	12.747
695.29	12.728
695.47	12.727
695.66	12.750
695.84	12.801
696.03	12.818
696.21	12.873
696.40	12.900
696.59	12.930
696.77	12.919
696.96	12.934
697.14	12.970
697.33	13.015
697.51	13.062
697.70	13.060
697.88	13.069
698.07	13.058
698.25	13.043
698.44	13.069
698.62	13.090
698.81	13.115
698.99	13.141
699.18	13.137
699.36	13.137
699.55	13.119
699.73	13.126
699.92	13.114
700.10	13.159
700.29	13.198
700.47	13.191
700.66	13.195
700.84	13.193
701.03	13.167
701.21	13.167
701.40	13.162
701.58	13.180
701.77	13.185
701.95	13.241
702.13	13.207
702.32	13.190
702.50	13.204
702.69	13.199
702.87	13.218
703.06	13.269
703.24	13.310
703.43	13.358
703.61	13.387
703.80	13.411
703.98	13.354
704.17	13.381
704.35	13.388
704.54	13.424
704.72	13.452
704.90	13.455
705.09	13.443
705.27	13.483
705.46	13.489
705.64	13.458
705.83	13.451
706.01	13.504
706.20	13.535
706.38	13.558
706.56	13.536
706.75	13.530
706.93	13.549
707.12	13.574
707.30	13.570
707.49	13.578
707.67	13.602
707.86	13.661
708.04	13.687
708.22	13.696
708.41	13.685
708.59	13.688
708.78	13.714
708.96	13.744
709.14	13.784
709.33	13.758
709.51	13.755
709.70	13.770
709.88	13.757
710.07	13.736
710.25	13.767
710.43	13.800
710.62	13.845
710.80	13.859
710.99	13.878
711.17	13.854
711.35	13.890
711.54	13.898
711.72	13.908
711.91	13.919
712.09	13.928
712.27	13.916
712.46	13.922
712.64	13.940
712.83	13.937
713.01	13.955
713.19	13.974
713.38	13.991
713.56	14.012
713.75	14.030
713.93	14.046
714.11	14.074
714.30	14.096
714.48	14.086
714.66	14.073
714.85	14.097
715.03	14.101
715.22	14.124
715.40	14.113
715.58	14.122
715.77	14.156
715.95	14.197
716.13	14.231
716.32	14.231
716.50	14.243
716.68	14.280
716.87	14.295
717.05	14.262
717.24	14.252
717.42	14.275
717.60	14.291
717.79	14.290
717.97	14.245
718.15	14.240
718.34	14.281
718.52	14.344
718.70	14.347
718.89	14.356
719.07	14.396
719.25	14.422
719.44	14.429
719.62	14.474
719.80	14.464
719.99	14.518
720.17	14.525
720.35	14.525
720.54	14.489
720.72	14.469
720.90	14.487
721.09	14.515
721.27	14.529
721.45	14.531
721.64	14.494
721.82	14.504
722.00	14.535
722.19	14.560
722.37	14.540
722.55	14.569
722.74	14.627
722.92	14.602
723.10	14.643
723.28	14.669
723.47	14.729
723.65	14.793
723.83	14.847
724.02	14.780
724.20	14.786
724.38	14.832
724.57	14.850
724.75	14.851
724.93	14.888
725.11	14.840
725.30	14.840
725.48	14.830
725.66	14.790
725.85	14.761
726.03	14.788
726.21	14.800
726.39	14.807
726.58	14.837
726.76	14.843
726.94	14.871
727.13	14.880
727.31	14.896
727.49	14.920
727.67	14.944
727.86	14.986
728.04	15.067
728.22	15.045
728.40	15.052
728.59	15.086
728.77	15.105
728.95	15.114
729.13	15.157
729.32	15.149
729.50	15.148
729.68	15.146
729.86	15.166
730.05	15.149
730.23	15.199
730.41	15.215
730.59	15.168
730.78	15.192
730.96	15.195
731.14	15.206
731.32	15.231
731.51	15.246
731.69	15.294
731.87	15.281
732.05	15.297
732.24	15.305
732.42	15.304
732.60	15.340
732.78	15.332
732.97	15.343
733.15	15.320
733.33	15.351
733.51	15.362
733.69	15.324
733.88	15.332
734.06	15.334
734.24	15.315
734.42	15.323
734.60	15.359
734.79	15.364
734.97	15.392
735.15	15.403
735.33	15.407
735.52	15.415
735.70	15.461
735.88	15.480
736.06	15.501
736.24	15.552
736.43	15.626
736.61	15.635
736.79	15.695
736.97	15.702
737.15	15.748
737.34	15.705
737.52	15.711
737.70	15.719
737.88	15.762
738.06	15.724
738.24	15.768
738.43	15.746
738.61	15.755
738.79	15.693
738.97	15.730
739.15	15.730
739.33	15.788
739.52	15.796
739.70	15.831
739.88	15.821
740.06	15.821
740.24	15.781
740.42	15.791
740.61	15.750
740.79	15.810
740.97	15.764
741.15	15.796
741.33	15.836
741.51	15.846
741.70	15.821
741.88	15.867
742.06	15.923
742.24	15.970
742.42	15.967
742.60	15.992
742.78	15.972
742.97	16.036
743.15	16.046
743.33	16.013
743.51	16.058
743.69	16.062
743.87	16.048
744.05	16.081
744.24	16.069
744.42	16.135
744.60	16.194
744.78	16.232
744.96	16.229
745.14	16.267
745.32	16.285
745.50	16.284
745.69	16.304
745.87	16.303
746.05	16.300
746.23	16.355
746.41	16.277
746.59	16.238
746.77	16.251
746.95	16.226
747.13	16.162
747.32	16.162
747.50	16.174
747.68	16.224
747.86	16.254
748.04	16.328
748.22	16.293
748.40	16.387
748.58	16.455
748.76	16.437
748.94	16.495
749.13	16.578
749.31	16.607
749.49	16.652
749.67	16.651
749.85	16.670
750.03	16.606
750.21	16.613
750.39	16.604
750.57	16.577
750.75	16.608
750.93	16.591
751.11	16.617
751.30	16.629
751.48	16.615
751.66	16.600
751.84	16.581
752.02	16.650
752.20	16.709
752.38	16.699
752.56	16.713
752.74	16.776
752.92	16.777
753.10	16.814
753.28	16.866
753.46	16.905
753.64	16.874
753.82	16.912
754.00	16.837
754.18	16.858
754.37	16.915
754.55	16.957
754.73	16.918
754.91	16.956
755.09	16.888
755.27	16.900
755.45	16.858
755.63	16.979
755.81	16.955
755.99	17.014
756.17	16.977
756.35	16.954
756.53	16.942
756.71	16.968
756.89	16.984
757.07	17.024
757.25	17.023
757.43	17.041
757.61	16.994
757.79	17.009
757.97	17.026
758.15	17.077
758.33	17.139
758.51	17.173
758.69	17.182
758.87	17.193
759.05	17.170
759.23	17.163
759.41	17.242
759.59	17.293
759.77	17.326
759.95	17.331
760.13	17.309
760.31	17.269
760.49	17.282
760.67	17.318
760.85	17.330
761.03	17.384
761.21	17.422
761.39	17.412
761.57	17.436
761.75	17.459
761.93	17.465
762.11	17.478
762.29	17.466
762.47	17.463
762.65	17.474
762.83	17.458
763.01	17.469
763.19	17.464
763.37	17.490
763.55	17.580
763.73	17.638
763.91	17.686
764.09	17.701
764.27	17.741
764.45	17.741
764.63	17.731
764.81	17.734
764.99	17.732
765.16	17.744
765.34	17.723
765.52	17.668
765.70	17.650
765.88	17.651
766.06	17.645
766.24	17.626
766.42	17.634
766.60	17.652
766.78	17.664
766.96	17.675
767.14	17.666
767.32	17.668
767.50	17.662
767.68	17.686
767.86	17.701
768.03	17.737
768.21	17.733
768.39	17.699
768.57	17.699
768.75	17.751
768.93	17.800
769.11	17.838
769.29	17.908
769.47	17.929
769.65	17.911
769.83	17.933
770.01	17.977
770.19	18.061
770.36	18.169
770.54	18.167
770.72	18.127
770.90	18.148
771.08	18.169
771.26	18.170
771.44	18.209
771.62	18.224
771.80	18.188
771.98	18.177
772.15	18.188
772.33	18.173
772.51	18.197
772.69	18.259
772.87	18.274
773.05	18.213
773.23	18.195
773.41	18.205
773.58	18.246
773.76	18.319
773.94	18.233
774.12	18.207
774.30	18.202
774.48	18.168
774.66	18.197
774.84	18.139
775.01	18.276
775.19	18.324
775.37	18.385
775.55	18.336
775.73	18.369
775.91	18.480
776.09	18.560
776.26	18.590
776.44	18.634
776.62	18.627
776.80	18.626
776.98	18.612
777.16	18.644
777.34	18.617
777.51	18.655
777.69	18.608
777.87	18.624
778.05	18.549
778.23	18.626
778.41	18.627
778.58	18.598
778.76	18.609
778.94	18.574
779.12	18.556
779.30	18.559
779.48	18.574
779.65	18.548
779.83	18.517
780.01	18.492
780.19	18.457
780.37	18.533
780.55	18.560
780.72	18.648
780.90	18.625
781.08	18.676
781.26	18.782
781.44	18.854
781.61	18.834
781.79	18.916
781.97	19.030
782.15	19.028
782.33	19.025
782.50	19.018
782.68	19.070
782.86	19.139
783.04	19.084
783.22	19.017
783.39	18.962
783.57	18.995
783.75	18.967
783.93	19.030
784.11	19.106
784.28	18.954
784.46	18.987
784.64	18.965
784.82	18.991
784.99	19.000
785.17	18.987
785.35	19.049
785.53	19.136
785.71	19.184
785.88	19.112
786.06	19.090
786.24	19.230
786.42	19.290
786.59	19.213
786.77	19.224
786.95	19.324
787.13	19.407
787.30	19.394
787.48	19.460
787.66	19.452
787.84	19.400
788.01	19.440
788.19	19.507
788.37	19.565
788.55	19.623
788.72	19.580
788.90	19.578
789.08	19.633
789.26	19.609
789.43	19.513
789.61	19.503
789.79	19.577
789.97	19.576
790.14	19.582
790.32	19.566
790.50	19.594
790.68	19.686
790.85	19.665
791.03	19.592
791.21	19.650
791.38	19.707
791.56	19.682
791.74	19.689
791.92	19.648
792.09	19.562
792.27	19.576
792.45	19.579
792.62	19.487
792.80	19.504
792.98	19.401
793.16	19.311
793.33	19.322
793.51	19.362
793.69	19.340
793.86	19.300
794.04	19.349
794.22	19.313
794.39	19.273
794.57	19.332
794.75	19.368
794.93	19.563
795.10	19.562
795.28	19.591
795.46	19.664
795.63	19.714
795.81	19.897
795.99	19.926
796.16	19.969
796.34	20.001
796.52	19.957
796.69	19.969
796.87	19.948
797.05	20.111
797.22	20.049
797.40	20.109
797.58	20.016
797.75	19.982
797.93	20.051
798.11	20.108
798.28	20.177
798.46	20.300
798.64	20.262
798.81	20.207
798.99	20.133
799.17	20.223
799.34	20.090
799.52	20.239
799.70	20.211
799.87	20.281
800.05	20.216
800.22	20.188
800.40	20.150
800.58	20.229
800.75	20.299
800.93	20.373
801.11	20.315
801.28	20.404
801.46	20.276
801.63	20.352
801.81	20.375
801.99	20.489
802.16	20.538
802.34	20.589
802.52	20.542
802.69	20.578
802.87	20.572
803.04	20.642
803.22	20.752
803.40	20.901
803.57	20.849
803.75	20.773
803.93	20.658
804.10	20.611
804.28	20.526
804.45	20.564
804.63	20.584
804.81	20.685
804.98	20.771
805.16	20.728
805.33	20.821
805.51	20.942
805.68	20.981
805.86	21.063
806.04	21.042
806.21	21.096
806.39	21.137
806.56	21.110
806.74	20.994
806.92	20.947
807.09	20.980
807.27	20.960
807.44	20.921
807.62	20.933
807.79	20.959
807.97	21.054
808.15	21.046
808.32	21.036
808.50	21.087
808.67	21.148
808.85	21.187
809.02	21.117
809.20	21.020
809.38	20.980
809.55	20.947
809.73	20.926
809.90	20.919
810.08	20.905
810.25	20.980
810.43	20.950
810.60	20.986
810.78	20.894
810.95	20.825
811.13	20.891
811.31	20.916
811.48	20.965
811.66	20.962
811.83	20.918
812.01	20.931
812.18	20.872
812.36	20.905
812.53	20.861
812.71	20.900
812.88	21.028
813.06	21.086
813.23	21.024
813.41	21.096
813.58	21.088
813.76	21.155
813.93	21.199
814.11	21.119
814.28	21.158
814.46	21.212
814.63	21.373
814.81	21.388
814.98	21.407
815.16	21.489
815.33	21.412
815.51	21.390
815.68	21.367
815.86	21.433
816.03	21.513
816.21	21.418
816.38	21.318
816.56	21.064
816.73	21.084
816.91	21.077
817.08	21.073
817.26	21.070
817.43	21.267
817.61	21.348
817.78	21.297
817.96	21.289
818.13	21.404
818.31	21.463
818.48	21.669
818.66	21.666
818.83	21.597
819.01	21.574
819.18	21.673
819.36	21.479
819.53	21.378
819.70	21.378
819.88	21.591
820.05	21.748
820.23	21.836
820.40	21.964
820.58	22.011
820.75	22.121
820.93	22.133
821.10	22.165
821.28	22.309
821.45	22.402
821.62	22.494
821.80	22.462
821.97	22.439
822.15	22.463
822.32	22.469
822.50	22.655
822.67	22.830
822.84	22.938
823.02	22.880
823.19	22.764
823.37	22.610
823.54	22.465
823.72	22.304
823.89	22.161
824.06	22.092
824.24	22.029
824.41	21.938
824.59	21.843
824.76	21.747
824.94	21.675
825.11	21.601
825.28	21.559
825.46	21.524
825.63	21.556
825.81	21.619
825.98	21.640
826.15	21.664
826.33	21.706
826.50	21.761
826.68	21.828
826.85	21.849
827.02	21.904
827.20	22.019
827.37	22.134
827.54	22.261
827.72	22.408
827.89	22.543
828.07	22.609
828.24	22.665
828.41	22.599
828.59	22.546
828.76	22.477
828.94	22.447
829.11	22.354
829.28	22.304
829.46	22.214
829.63	22.129
829.80	22.054
829.98	21.963
830.15	21.884
830.32	21.908
830.50	21.921
830.67	21.994
830.85	22.021
831.02	22.092
831.19	22.090
831.37	22.146
831.54	22.199
831.71	22.235
831.89	22.335
832.06	22.443
832.23	22.475
832.41	22.560
832.58	22.545
832.75	22.636
832.93	22.621
833.10	22.751
833.27	22.826
833.45	22.906
833.62	22.851
833.79	22.930
833.97	23.009
834.14	23.151
834.31	23.246
834.49	23.373
834.66	23.299
834.83	23.441
835.01	23.384
835.18	23.295
835.35	23.268
835.52	23.166
835.70	23.101
835.87	23.067
836.04	22.961
836.22	22.871
836.39	22.787
836.56	22.770
836.74	22.662
836.91	22.627
837.08	22.576
837.25	22.567
837.43	22.695
837.60	22.751
837.77	22.688
837.95	22.773
838.12	22.830
838.29	22.847
838.46	22.860
838.64	22.807
838.81	22.733
838.98	22.931
839.16	22.838
839.33	22.819
839.50	22.710
839.67	22.825
839.85	22.797
840.02	22.783
840.19	22.772
840.36	22.869
840.54	23.038
840.71	23.370
840.88	23.446
841.06	23.484
841.23	23.520
841.40	23.558
841.57	23.536
841.75	23.463
841.92	23.418
842.09	23.399
842.26	23.355
842.44	23.217
842.61	23.021
842.78	22.989
842.95	23.073
843.12	23.056
843.30	23.057
843.47	23.011
843.64	23.053
843.81	23.202
843.99	23.195
844.16	23.292
844.33	23.525
844.50	23.758
844.68	23.637
844.85	23.383
845.02	23.402
845.19	23.615
845.36	23.551
845.54	23.692
845.71	23.503
845.88	23.602
846.05	23.449
846.22	23.337
846.40	23.404
846.57	23.724
846.74	23.939
846.91	23.688
847.08	23.583
847.26	23.699
847.43	23.650
847.60	23.672
847.77	23.729
847.94	23.827
848.12	23.999
848.29	24.081
848.46	24.011
848.63	24.090
848.80	24.172
848.98	24.189
849.15	24.280
849.32	24.353
849.49	24.143
849.66	24.277
849.83	24.347
850.01	24.383
850.18	24.174
850.35	24.116
850.52	23.920
850.69	24.081
850.86	24.010
851.04	23.698
851.21	23.696
851.38	23.924
851.55	23.798
851.72	23.593
851.89	23.228
852.06	23.200
852.24	23.212
852.41	23.516
852.58	23.495
852.75	23.594
852.92	23.714
853.09	23.805
853.26	23.753
853.44	24.113
853.61	24.386
853.78	24.508
853.95	24.497
854.12	24.295
854.29	24.382
854.46	24.588
854.64	24.669
854.81	24.872
854.98	24.909
855.15	25.131
855.32	24.685
855.49	24.488
855.66	24.357
855.83	24.431
856.00	24.559
856.18	24.435
856.35	24.036
856.52	24.136
856.69	24.046
856.86	23.962
857.03	23.708
857.20	24.184
857.37	24.589
857.54	24.845
857.71	24.883
857.89	25.093
858.06	25.030
858.23	24.960
858.40	24.865
858.57	25.102
858.74	25.007
858.91	25.241
859.08	25.161
859.25	24.884
859.42	24.854
859.59	24.983
859.76	24.940
859.94	24.992
860.11	25.469
860.28	25.473
860.45	25.355
860.62	25.406
860.79	25.318
860.96	25.285
861.13	25.257
861.30	25.360
861.47	25.059
861.64	25.001
861.81	24.809
861.98	24.333
862.15	24.172
862.32	24.129
862.49	24.167
862.66	24.450
862.83	24.327
863.01	24.302
863.18	24.042
863.35	24.231
863.52	24.601
863.69	24.310
863.86	24.768
864.03	24.960
864.20	25.044
864.37	25.210
864.54	24.930
864.71	25.356
864.88	25.458
865.05	25.798
865.22	25.852
865.39	25.727
865.56	26.163
865.73	26.144
865.90	26.095
866.07	26.051
866.24	25.545
866.41	25.637
866.58	25.080
866.75	25.001
866.92	24.682
867.09	24.837
867.26	24.756
867.43	24.620
867.60	24.429
867.77	24.359
867.94	24.090
868.11	24.573
868.28	24.797
868.45	24.918
868.62	24.976
868.79	25.212
868.96	24.981
869.13	25.124
869.30	25.037
869.47	25.321
869.64	25.410
869.81	25.589
869.98	25.436
870.15	25.324
870.32	25.176
870.49	24.914
870.66	25.128
870.83	25.079
871.00	25.093
871.16	25.218
871.33	24.904
871.50	24.830
871.67	25.045
871.84	25.171
872.01	25.142
872.18	25.380
872.35	25.912
872.52	25.777
872.69	25.702
872.86	25.693
873.03	25.919
873.20	26.227
873.37	26.007
873.54	26.010
873.71	25.911
873.88	25.926
874.05	25.913
874.21	25.822
874.38	25.677
874.55	25.967
874.72	25.744
874.89	25.497
875.06	25.361
875.23	25.622
875.40	25.516
875.57	25.712
875.74	25.692
875.91	25.421
876.08	25.289
876.24	25.318
876.41	25.303
876.58	25.452
876.75	25.337
876.92	25.362
877.09	25.743
877.26	25.985
877.43	25.809
877.60	25.882
877.77	26.127
877.93	26.311
878.10	26.280
878.27	26.250
878.44	26.245
878.61	26.477
878.78	26.613
878.95	26.210
879.12	26.222
879.28	26.393
879.45	26.365
879.62	26.565
879.79	26.274
879.96	26.523
880.13	26.372
880.30	26.415
880.47	26.418
880.63	26.395
880.80	26.509
880.97	26.513
881.14	26.403
881.31	26.397
881.48	26.315
881.65	26.661
881.81	26.861
881.98	27.147
882.15	27.320
882.32	27.519
882.49	27.502
882.66	27.470
882.82	27.333
882.99	27.217
883.16	27.108
883.33	26.989
883.50	26.869
883.67	26.754
883.83	26.641
884.00	26.541
884.17	26.414
884.34	26.300
884.51	26.193
884.68	26.108
884.84	26.030
885.01	25.973
885.18	25.958
885.35	25.922
885.52	25.869
885.68	25.861
885.85	25.810
886.02	25.908
886.19	25.705
886.36	25.295
886.53	26.017
886.69	25.807
>>>>>End Spectral Data<<<<<
