OOIBase32 Version 2.0.6.5 Data File
++++++++++++++++++++++++++++++++++++
Date: 03-24-2011, 10:56:08
User: Valued Ocean Optics Customer
Spectrometer Serial Number: USB4C01507
Spectrometer Channel: Master
Integration Time (msec): 46
Spectra Averaged: 30
Boxcar Smoothing: 5
Correct for Electrical Dark: Enabled
Time Normalized: Disabled
Dual-beam Reference: Disabled
Reference Channel: Master
Temperature: Not acquired
Spectrometer Type: S4000
ADC Type: USB4000
Number of Pixels in File: 3648
Graph Title: 
>>>>>Begin Spectral Data<<<<<
179.17	1210.534
179.39	3176.424
179.60	131.131
179.82	-197.639
180.03	-59.946
180.24	-416.709
180.46	24.606
180.67	-28.420
180.89	35.374
181.10	-225.010
181.31	97.132
181.53	128.135
181.74	18.674
181.96	-245.512
182.17	104.050
182.39	-34.492
182.60	128.831
182.81	132.274
183.03	184.425
183.24	-523.457
183.46	23.208
183.67	8.618
183.88	-3.692
184.10	6.785
184.31	5.526
184.53	20.974
184.74	21.750
184.96	25.253
185.17	26.927
185.38	35.612
185.60	45.627
185.81	44.129
186.03	49.534
186.24	46.378
186.45	48.775
186.67	44.376
186.88	44.059
187.10	39.034
187.31	37.427
187.52	31.212
187.74	23.394
187.95	17.505
188.17	8.252
188.38	6.907
188.59	8.672
188.81	1.812
189.02	3.214
189.24	-3.111
189.45	-0.846
189.66	-1.117
189.88	-5.801
190.09	-6.817
190.30	-7.788
190.52	2.367
190.73	5.481
190.95	6.937
191.16	11.156
191.37	12.167
191.59	4.329
191.80	10.472
192.02	13.654
192.23	19.400
192.44	7.182
192.66	1.951
192.87	-6.786
193.08	-12.196
193.30	-13.729
193.51	-8.816
193.73	-8.745
193.94	2.388
194.15	-3.063
194.37	0.606
194.58	6.589
194.79	7.731
195.01	13.555
195.22	14.627
195.44	16.788
195.65	18.023
195.86	12.587
196.08	13.418
196.29	9.964
196.50	11.731
196.72	14.417
196.93	13.434
197.14	11.001
197.36	12.085
197.57	5.330
197.79	3.956
198.00	-1.982
198.21	3.337
198.43	7.886
198.64	11.692
198.85	6.507
199.07	-0.217
199.28	-0.661
199.49	3.819
199.71	7.273
199.92	17.258
200.13	16.841
200.35	25.871
200.56	18.455
200.78	13.908
200.99	8.303
201.20	17.684
201.42	16.662
201.63	10.155
201.84	16.950
202.06	12.477
202.27	11.910
202.48	11.861
202.70	1.289
202.91	6.627
203.12	4.707
203.34	5.523
203.55	3.266
203.76	2.991
203.98	11.333
204.19	9.854
204.40	10.500
204.62	9.438
204.83	7.868
205.04	12.145
205.26	8.749
205.47	10.077
205.68	12.529
205.90	9.401
206.11	11.252
206.32	4.502
206.54	1.423
206.75	1.320
206.96	0.003
207.18	3.890
207.39	3.869
207.60	8.512
207.82	7.008
208.03	6.077
208.24	9.560
208.45	14.289
208.67	13.645
208.88	14.815
209.09	12.819
209.31	10.713
209.52	8.120
209.73	7.153
209.95	6.565
210.16	9.614
210.37	7.709
210.59	7.696
210.80	4.091
211.01	6.435
211.23	8.302
211.44	8.552
211.65	9.328
211.86	9.840
212.08	10.299
212.29	9.186
212.50	5.610
212.72	3.003
212.93	0.988
213.14	1.823
213.36	-0.807
213.57	-3.163
213.78	-1.367
213.99	1.792
214.21	5.205
214.42	8.181
214.63	7.826
214.85	8.508
215.06	12.327
215.27	12.846
215.49	12.775
215.70	14.821
215.91	12.618
216.12	10.881
216.34	12.399
216.55	12.328
216.76	11.373
216.98	9.099
217.19	10.317
217.40	10.215
217.61	11.255
217.83	13.255
218.04	13.285
218.25	15.340
218.47	15.938
218.68	13.173
218.89	11.371
219.10	11.511
219.32	10.738
219.53	10.714
219.74	9.255
219.95	8.072
220.17	7.823
220.38	7.759
220.59	6.273
220.81	5.210
221.02	6.313
221.23	6.819
221.44	6.625
221.66	7.676
221.87	6.869
222.08	8.077
222.29	9.130
222.51	8.940
222.72	8.333
222.93	8.847
223.14	10.019
223.36	9.461
223.57	8.459
223.78	7.115
223.99	6.148
224.21	6.554
224.42	5.375
224.63	4.886
224.84	3.471
225.06	4.372
225.27	4.304
225.48	4.129
225.69	4.295
225.91	4.808
226.12	4.762
226.33	5.539
226.54	5.357
226.76	5.585
226.97	5.223
227.18	5.287
227.39	5.036
227.61	5.249
227.82	5.021
228.03	4.974
228.24	4.856
228.46	5.041
228.67	5.005
228.88	4.889
229.09	4.755
229.31	4.842
229.52	4.881
229.73	4.961
229.94	4.752
230.16	5.025
230.37	5.009
230.58	5.171
230.79	5.032
231.00	4.962
231.22	5.157
231.43	5.561
231.64	5.732
231.85	5.874
232.07	5.752
232.28	6.158
232.49	5.684
232.70	5.560
232.91	5.664
233.13	5.767
233.34	5.777
233.55	6.037
233.76	5.679
233.98	5.692
234.19	5.680
234.40	5.610
234.61	5.127
234.82	5.154
235.04	5.002
235.25	4.993
235.46	4.798
235.67	4.655
235.88	4.481
236.10	4.611
236.31	4.275
236.52	4.258
236.73	4.475
236.94	5.085
237.16	4.843
237.37	5.094
237.58	4.767
237.79	4.748
238.01	4.588
238.22	4.570
238.43	4.413
238.64	4.792
238.85	4.627
239.06	4.605
239.28	4.390
239.49	4.476
239.70	4.520
239.91	4.543
240.12	4.335
240.34	4.447
240.55	4.586
240.76	4.651
240.97	4.409
241.18	4.369
241.40	4.227
241.61	4.144
241.82	4.221
242.03	4.299
242.24	4.181
242.45	4.222
242.67	4.227
242.88	4.148
243.09	3.955
243.30	3.773
243.51	3.862
243.73	3.876
243.94	3.841
244.15	3.667
244.36	3.567
244.57	3.941
244.78	4.020
245.00	3.985
245.21	3.817
245.42	3.908
245.63	3.978
245.84	3.975
246.05	4.009
246.27	4.029
246.48	4.045
246.69	4.012
246.90	3.938
247.11	3.885
247.32	3.862
247.54	3.891
247.75	3.892
247.96	3.917
248.17	3.872
248.38	3.868
248.59	3.826
248.81	3.814
249.02	3.792
249.23	3.722
249.44	3.722
249.65	3.757
249.86	3.575
250.07	3.704
250.29	3.603
250.50	3.352
250.71	3.342
250.92	3.386
251.13	3.493
251.34	3.657
251.55	3.750
251.77	3.858
251.98	3.866
252.19	3.914
252.40	3.726
252.61	3.744
252.82	3.815
253.03	3.816
253.25	3.717
253.46	3.489
253.67	3.145
253.88	2.999
254.09	2.885
254.30	2.838
254.51	3.045
254.73	3.251
254.94	3.364
255.15	3.632
255.36	3.651
255.57	3.493
255.78	3.495
255.99	3.441
256.20	3.535
256.42	3.483
256.63	3.458
256.84	3.416
257.05	3.389
257.26	3.306
257.47	3.103
257.68	3.020
257.89	3.092
258.10	3.132
258.32	3.242
258.53	3.169
258.74	3.156
258.95	3.184
259.16	3.149
259.37	3.148
259.58	3.136
259.79	3.188
260.00	3.192
260.22	3.190
260.43	3.227
260.64	3.177
260.85	3.245
261.06	3.300
261.27	3.200
261.48	3.174
261.69	3.084
261.90	3.125
262.12	3.116
262.33	3.210
262.54	3.344
262.75	3.318
262.96	3.286
263.17	3.252
263.38	3.181
263.59	3.311
263.80	3.511
264.01	3.723
264.22	3.594
264.44	3.421
264.65	3.130
264.86	3.135
265.07	2.998
265.28	3.106
265.49	3.058
265.70	3.016
265.91	3.015
266.12	2.964
266.33	2.857
266.54	2.943
266.75	3.040
266.97	3.145
267.18	3.085
267.39	3.118
267.60	3.060
267.81	3.120
268.02	3.132
268.23	3.216
268.44	3.162
268.65	3.166
268.86	3.149
269.07	3.181
269.28	3.069
269.49	3.085
269.70	3.014
269.92	3.027
270.13	2.940
270.34	3.052
270.55	2.906
270.76	2.893
270.97	3.001
271.18	3.062
271.39	3.000
271.60	3.107
271.81	3.177
272.02	3.251
272.23	3.245
272.44	3.245
272.65	3.189
272.86	3.190
273.07	3.177
273.28	3.220
273.49	3.134
273.71	3.143
273.92	3.212
274.13	3.084
274.34	2.958
274.55	3.016
274.76	2.962
274.97	2.948
275.18	2.853
275.39	2.860
275.60	2.718
275.81	2.816
276.02	2.760
276.23	2.659
276.44	2.715
276.65	2.775
276.86	2.675
277.07	2.769
277.28	2.785
277.49	3.014
277.70	2.953
277.91	3.004
278.12	2.926
278.33	2.854
278.54	2.861
278.75	2.796
278.96	2.846
279.17	2.893
279.39	2.806
279.60	2.754
279.81	2.616
280.02	2.655
280.23	2.601
280.44	2.553
280.65	2.604
280.86	2.538
281.07	2.611
281.28	2.607
281.49	2.499
281.70	2.590
281.91	2.644
282.12	2.667
282.33	2.732
282.54	2.724
282.75	2.788
282.96	2.901
283.17	3.010
283.38	2.967
283.59	2.858
283.80	2.832
284.01	2.685
284.22	2.626
284.43	2.601
284.64	2.534
284.85	2.550
285.06	2.552
285.27	2.504
285.48	2.447
285.69	2.407
285.90	2.497
286.11	2.584
286.32	2.664
286.53	2.676
286.74	2.774
286.95	2.836
287.16	2.901
287.37	2.858
287.58	2.826
287.79	2.857
288.00	2.927
288.21	2.818
288.42	2.755
288.63	2.777
288.84	2.797
289.05	2.721
289.26	2.706
289.47	2.598
289.68	2.557
289.89	2.555
290.10	2.466
290.31	2.420
290.51	2.480
290.72	2.486
290.93	2.535
291.14	2.471
291.35	2.459
291.56	2.391
291.77	2.340
291.98	2.371
292.19	2.443
292.40	2.503
292.61	2.511
292.82	2.536
293.03	2.576
293.24	2.467
293.45	2.520
293.66	2.526
293.87	2.631
294.08	2.675
294.29	2.778
294.50	2.680
294.71	2.651
294.92	2.643
295.13	2.623
295.34	2.523
295.55	2.519
295.76	2.431
295.96	2.406
296.17	2.385
296.38	2.448
296.59	2.383
296.80	2.407
297.01	2.455
297.22	2.457
297.43	2.460
297.64	2.486
297.85	2.475
298.06	2.502
298.27	2.510
298.48	2.490
298.69	2.391
298.90	2.392
299.11	2.380
299.32	2.334
299.53	2.314
299.73	2.298
299.94	2.320
300.15	2.349
300.36	2.386
300.57	2.347
300.78	2.316
300.99	2.334
301.20	2.359
301.41	2.405
301.62	2.402
301.83	2.419
302.04	2.441
302.25	2.435
302.45	2.380
302.66	2.394
302.87	2.418
303.08	2.425
303.29	2.481
303.50	2.485
303.71	2.489
303.92	2.439
304.13	2.405
304.34	2.369
304.55	2.369
304.76	2.428
304.96	2.360
305.17	2.324
305.38	2.304
305.59	2.253
305.80	2.268
306.01	2.274
306.22	2.275
306.43	2.307
306.64	2.277
306.85	2.297
307.06	2.298
307.26	2.294
307.47	2.273
307.68	2.358
307.89	2.384
308.10	2.259
308.31	2.213
308.52	2.326
308.73	2.290
308.94	2.334
309.14	2.358
309.35	2.370
309.56	2.395
309.77	2.422
309.98	2.390
310.19	2.391
310.40	2.470
310.61	2.454
310.82	2.376
311.02	2.405
311.23	2.361
311.44	2.317
311.65	2.275
311.86	2.285
312.07	2.300
312.28	2.236
312.49	2.215
312.69	2.173
312.90	2.189
313.11	2.150
313.32	2.123
313.53	2.123
313.74	2.047
313.95	2.025
314.16	2.030
314.36	2.054
314.57	2.158
314.78	2.156
314.99	2.213
315.20	2.190
315.41	2.228
315.62	2.162
315.82	2.208
316.03	2.232
316.24	2.300
316.45	2.311
316.66	2.296
316.87	2.310
317.08	2.296
317.28	2.268
317.49	2.285
317.70	2.262
317.91	2.274
318.12	2.273
318.33	2.296
318.54	2.218
318.74	2.173
318.95	2.189
319.16	2.123
319.37	2.150
319.58	2.141
319.79	2.094
319.99	2.143
320.20	2.168
320.41	2.149
320.62	2.175
320.83	2.180
321.04	2.189
321.24	2.148
321.45	2.175
321.66	2.183
321.87	2.199
322.08	2.187
322.29	2.141
322.49	2.125
322.70	2.093
322.91	2.127
323.12	2.161
323.33	2.160
323.54	2.150
323.74	2.138
323.95	2.102
324.16	2.072
324.37	2.091
324.58	2.165
324.79	2.229
324.99	2.242
325.20	2.226
325.41	2.219
325.62	2.238
325.83	2.225
326.03	2.167
326.24	2.185
326.45	2.203
326.66	2.224
326.87	2.203
327.07	2.183
327.28	2.189
327.49	2.155
327.70	2.136
327.91	2.105
328.11	2.097
328.32	2.135
328.53	2.180
328.74	2.155
328.95	2.131
329.15	2.112
329.36	2.143
329.57	2.137
329.78	2.165
329.99	2.197
330.19	2.198
330.40	2.198
330.61	2.197
330.82	2.100
331.03	2.049
331.23	2.079
331.44	2.080
331.65	2.028
331.86	2.095
332.07	2.031
332.27	1.999
332.48	1.983
332.69	2.012
332.90	2.034
333.10	2.089
333.31	2.147
333.52	2.095
333.73	2.106
333.94	2.097
334.14	2.027
334.35	2.050
334.56	2.043
334.77	2.028
334.97	2.022
335.18	1.918
335.39	1.904
335.60	1.886
335.80	1.906
336.01	1.864
336.22	1.843
336.43	1.878
336.64	1.880
336.84	1.885
337.05	1.858
337.26	1.843
337.47	1.918
337.67	1.960
337.88	1.948
338.09	1.951
338.30	2.002
338.50	2.055
338.71	2.037
338.92	2.077
339.13	2.124
339.33	2.196
339.54	2.167
339.75	2.119
339.96	2.084
340.16	2.063
340.37	2.098
340.58	2.024
340.79	2.003
340.99	1.999
341.20	1.940
341.41	1.866
341.62	1.830
341.82	1.864
342.03	1.842
342.24	1.786
342.44	1.822
342.65	1.768
342.86	1.772
343.07	1.768
343.27	1.782
343.48	1.821
343.69	1.816
343.90	1.856
344.10	1.828
344.31	1.899
344.52	1.964
344.72	1.955
344.93	1.963
345.14	1.985
345.35	1.958
345.55	1.916
345.76	1.894
345.97	1.931
346.18	1.896
346.38	1.920
346.59	1.894
346.80	1.890
347.00	1.854
347.21	1.862
347.42	1.874
347.62	1.898
347.83	1.853
348.04	1.861
348.25	1.812
348.45	1.817
348.66	1.801
348.87	1.803
349.07	1.768
349.28	1.791
349.49	1.783
349.70	1.799
349.90	1.775
350.11	1.787
350.32	1.772
350.52	1.805
350.73	1.825
350.94	1.835
351.14	1.827
351.35	1.855
351.56	1.866
351.76	1.855
351.97	1.822
352.18	1.866
352.39	1.903
352.59	1.932
352.80	1.918
353.01	1.929
353.21	1.932
353.42	1.913
353.63	1.875
353.83	1.860
354.04	1.847
354.25	1.815
354.45	1.778
354.66	1.776
354.87	1.735
355.07	1.748
355.28	1.739
355.49	1.744
355.69	1.761
355.90	1.799
356.11	1.829
356.31	1.868
356.52	1.909
356.73	1.921
356.93	1.932
357.14	1.973
357.35	1.989
357.55	1.967
357.76	1.943
357.97	1.911
358.17	1.916
358.38	1.922
358.59	1.916
358.79	1.905
359.00	1.891
359.21	1.882
359.41	1.830
359.62	1.822
359.83	1.811
360.03	1.838
360.24	1.892
360.44	1.853
360.65	1.820
360.86	1.810
361.06	1.781
361.27	1.795
361.48	1.766
361.68	1.804
361.89	1.789
362.10	1.795
362.30	1.770
362.51	1.724
362.72	1.777
362.92	1.809
363.13	1.786
363.33	1.802
363.54	1.792
363.75	1.837
363.95	1.828
364.16	1.807
364.37	1.841
364.57	1.870
364.78	1.866
364.98	1.831
365.19	1.797
365.40	1.838
365.60	1.816
365.81	1.830
366.02	1.831
366.22	1.796
366.43	1.827
366.63	1.775
366.84	1.722
367.05	1.756
367.25	1.731
367.46	1.704
367.66	1.678
367.87	1.712
368.08	1.701
368.28	1.696
368.49	1.704
368.69	1.660
368.90	1.690
369.11	1.764
369.31	1.750
369.52	1.763
369.72	1.799
369.93	1.762
370.14	1.753
370.34	1.746
370.55	1.729
370.75	1.737
370.96	1.739
371.17	1.760
371.37	1.724
371.58	1.733
371.78	1.740
371.99	1.736
372.20	1.787
372.40	1.776
372.61	1.789
372.81	1.796
373.02	1.804
373.23	1.830
373.43	1.821
373.64	1.810
373.84	1.778
374.05	1.789
374.25	1.795
374.46	1.755
374.67	1.760
374.87	1.774
375.08	1.737
375.28	1.724
375.49	1.724
375.69	1.698
375.90	1.686
376.11	1.697
376.31	1.667
376.52	1.677
376.72	1.673
376.93	1.690
377.13	1.657
377.34	1.698
377.55	1.741
377.75	1.743
377.96	1.714
378.16	1.710
378.37	1.756
378.57	1.788
378.78	1.776
378.98	1.804
379.19	1.825
379.40	1.816
379.60	1.766
379.81	1.743
380.01	1.718
380.22	1.735
380.42	1.740
380.63	1.702
380.83	1.675
381.04	1.654
381.24	1.634
381.45	1.602
381.66	1.595
381.86	1.634
382.07	1.632
382.27	1.644
382.48	1.641
382.68	1.638
382.89	1.640
383.09	1.648
383.30	1.644
383.50	1.667
383.71	1.658
383.91	1.681
384.12	1.677
384.32	1.639
384.53	1.647
384.73	1.648
384.94	1.664
385.15	1.680
385.35	1.678
385.56	1.695
385.76	1.648
385.97	1.686
386.17	1.680
386.38	1.684
386.58	1.707
386.79	1.738
386.99	1.739
387.20	1.735
387.40	1.729
387.61	1.725
387.81	1.712
388.02	1.740
388.22	1.691
388.43	1.689
388.63	1.673
388.84	1.678
389.04	1.648
389.25	1.660
389.45	1.642
389.66	1.637
389.86	1.640
390.07	1.662
390.27	1.680
390.48	1.702
390.68	1.725
390.89	1.756
391.09	1.767
391.30	1.770
391.50	1.765
391.71	1.784
391.91	1.776
392.12	1.804
392.32	1.782
392.53	1.789
392.73	1.783
392.94	1.775
393.14	1.739
393.35	1.739
393.55	1.736
393.75	1.741
393.96	1.732
394.16	1.719
394.37	1.694
394.57	1.717
394.78	1.717
394.98	1.704
395.19	1.668
395.39	1.666
395.60	1.659
395.80	1.663
396.01	1.655
396.21	1.671
396.42	1.672
396.62	1.659
396.83	1.627
397.03	1.639
397.23	1.650
397.44	1.679
397.64	1.690
397.85	1.678
398.05	1.683
398.26	1.685
398.46	1.663
398.67	1.693
398.87	1.711
399.08	1.720
399.28	1.667
399.48	1.675
399.69	1.668
399.89	1.683
400.10	1.674
400.30	1.646
400.51	1.649
400.71	1.671
400.92	1.644
401.12	1.641
401.32	1.627
401.53	1.656
401.73	1.635
401.94	1.638
402.14	1.637
402.35	1.664
402.55	1.687
402.75	1.674
402.96	1.655
403.16	1.669
403.37	1.669
403.57	1.690
403.78	1.695
403.98	1.713
404.18	1.703
404.39	1.679
404.59	1.650
404.80	1.632
405.00	1.634
405.21	1.647
405.41	1.647
405.61	1.633
405.82	1.646
406.02	1.645
406.23	1.642
406.43	1.645
406.63	1.662
406.84	1.692
407.04	1.723
407.25	1.744
407.45	1.763
407.65	1.757
407.86	1.757
408.06	1.732
408.27	1.723
408.47	1.731
408.67	1.717
408.88	1.709
409.08	1.682
409.29	1.665
409.49	1.648
409.69	1.632
409.90	1.648
410.10	1.662
410.31	1.666
410.51	1.682
410.71	1.683
410.92	1.673
411.12	1.675
411.33	1.710
411.53	1.713
411.73	1.704
411.94	1.721
412.14	1.707
412.34	1.705
412.55	1.724
412.75	1.720
412.96	1.708
413.16	1.720
413.36	1.710
413.57	1.676
413.77	1.666
413.97	1.681
414.18	1.677
414.38	1.669
414.59	1.680
414.79	1.647
414.99	1.634
415.20	1.644
415.40	1.659
415.60	1.667
415.81	1.679
416.01	1.690
416.21	1.690
416.42	1.686
416.62	1.707
416.83	1.692
417.03	1.704
417.23	1.701
417.44	1.696
417.64	1.688
417.84	1.693
418.05	1.694
418.25	1.691
418.45	1.692
418.66	1.690
418.86	1.670
419.06	1.687
419.27	1.689
419.47	1.679
419.67	1.671
419.88	1.665
420.08	1.648
420.28	1.650
420.49	1.646
420.69	1.639
420.89	1.629
421.10	1.637
421.30	1.632
421.50	1.625
421.71	1.633
421.91	1.637
422.11	1.642
422.32	1.665
422.52	1.665
422.72	1.670
422.93	1.679
423.13	1.685
423.33	1.679
423.54	1.671
423.74	1.667
423.94	1.676
424.15	1.674
424.35	1.691
424.55	1.680
424.76	1.685
424.96	1.692
425.16	1.682
425.36	1.678
425.57	1.676
425.77	1.674
425.97	1.684
426.18	1.687
426.38	1.690
426.58	1.685
426.79	1.688
426.99	1.684
427.19	1.676
427.39	1.687
427.60	1.692
427.80	1.715
428.00	1.739
428.21	1.756
428.41	1.756
428.61	1.762
428.82	1.752
429.02	1.755
429.22	1.771
429.42	1.768
429.63	1.779
429.83	1.782
430.03	1.768
430.24	1.751
430.44	1.748
430.64	1.738
430.84	1.724
431.05	1.706
431.25	1.724
431.45	1.712
431.65	1.700
431.86	1.689
432.06	1.696
432.26	1.693
432.47	1.700
432.67	1.690
432.87	1.701
433.07	1.714
433.28	1.736
433.48	1.729
433.68	1.724
433.88	1.747
434.09	1.765
434.29	1.765
434.49	1.780
434.69	1.779
434.90	1.796
435.10	1.787
435.30	1.794
435.51	1.798
435.71	1.796
435.91	1.791
436.11	1.784
436.32	1.753
436.52	1.756
436.72	1.760
436.92	1.760
437.13	1.761
437.33	1.767
437.53	1.755
437.73	1.748
437.93	1.743
438.14	1.749
438.34	1.743
438.54	1.757
438.74	1.742
438.95	1.720
439.15	1.727
439.35	1.724
439.55	1.721
439.76	1.732
439.96	1.739
440.16	1.752
440.36	1.752
440.56	1.756
440.77	1.744
440.97	1.757
441.17	1.774
441.37	1.774
441.58	1.773
441.78	1.788
441.98	1.789
442.18	1.783
442.38	1.775
442.59	1.792
442.79	1.779
442.99	1.800
443.19	1.794
443.40	1.802
443.60	1.800
443.80	1.800
444.00	1.785
444.20	1.771
444.41	1.759
444.61	1.768
444.81	1.759
445.01	1.766
445.21	1.749
445.42	1.755
445.62	1.745
445.82	1.739
446.02	1.742
446.22	1.741
446.43	1.743
446.63	1.744
446.83	1.742
447.03	1.739
447.23	1.735
447.44	1.745
447.64	1.746
447.84	1.752
448.04	1.760
448.24	1.768
448.44	1.777
448.65	1.781
448.85	1.784
449.05	1.793
449.25	1.797
449.45	1.819
449.65	1.816
449.86	1.829
450.06	1.831
450.26	1.831
450.46	1.836
450.66	1.831
450.87	1.837
451.07	1.847
451.27	1.830
451.47	1.845
451.67	1.834
451.87	1.841
452.08	1.827
452.28	1.822
452.48	1.820
452.68	1.817
452.88	1.811
453.08	1.814
453.28	1.816
453.49	1.830
453.69	1.825
453.89	1.825
454.09	1.824
454.29	1.840
454.49	1.846
454.70	1.842
454.90	1.828
455.10	1.839
455.30	1.819
455.50	1.826
455.70	1.813
455.90	1.818
456.11	1.823
456.31	1.825
456.51	1.794
456.71	1.796
456.91	1.808
457.11	1.823
457.31	1.820
457.51	1.842
457.72	1.834
457.92	1.842
458.12	1.822
458.32	1.818
458.52	1.824
458.72	1.835
458.92	1.829
459.12	1.821
459.33	1.809
459.53	1.817
459.73	1.826
459.93	1.824
460.13	1.824
460.33	1.838
460.53	1.833
460.73	1.822
460.93	1.829
461.14	1.842
461.34	1.854
461.54	1.874
461.74	1.874
461.94	1.875
462.14	1.883
462.34	1.885
462.54	1.876
462.74	1.880
462.95	1.878
463.15	1.877
463.35	1.861
463.55	1.850
463.75	1.843
463.95	1.843
464.15	1.828
464.35	1.846
464.55	1.844
464.75	1.848
464.95	1.863
465.16	1.879
465.36	1.877
465.56	1.879
465.76	1.889
465.96	1.895
466.16	1.904
466.36	1.915
466.56	1.893
466.76	1.894
466.96	1.904
467.16	1.903
467.36	1.903
467.57	1.907
467.77	1.916
467.97	1.921
468.17	1.925
468.37	1.915
468.57	1.920
468.77	1.925
468.97	1.927
469.17	1.924
469.37	1.922
469.57	1.924
469.77	1.931
469.97	1.932
470.17	1.929
470.37	1.917
470.57	1.923
470.78	1.909
470.98	1.925
471.18	1.933
471.38	1.928
471.58	1.930
471.78	1.941
471.98	1.945
472.18	1.958
472.38	1.963
472.58	1.975
472.78	1.985
472.98	1.999
473.18	2.001
473.38	1.994
473.58	2.009
473.78	2.007
473.98	2.005
474.18	2.006
474.38	1.997
474.58	2.000
474.78	2.009
474.98	2.004
475.18	2.010
475.38	2.004
475.58	2.014
475.79	2.002
475.99	2.001
476.19	2.005
476.39	1.995
476.59	1.988
476.79	1.996
476.99	1.981
477.19	1.979
477.39	1.963
477.59	1.971
477.79	1.966
477.99	1.957
478.19	1.963
478.39	1.965
478.59	1.973
478.79	1.974
478.99	1.963
479.19	1.974
479.39	1.977
479.59	1.994
479.79	1.992
479.99	2.000
480.19	2.014
480.39	2.011
480.59	2.014
480.79	2.018
480.99	2.032
481.19	2.034
481.39	2.031
481.59	2.028
481.79	2.027
481.99	2.032
482.19	2.028
482.39	2.037
482.59	2.042
482.79	2.031
482.99	2.024
483.19	2.040
483.39	2.067
483.59	2.088
483.79	2.094
483.99	2.085
484.19	2.075
484.39	2.075
484.58	2.070
484.78	2.074
484.98	2.078
485.18	2.084
485.38	2.078
485.58	2.055
485.78	2.036
485.98	2.025
486.18	2.033
486.38	2.050
486.58	2.061
486.78	2.065
486.98	2.066
487.18	2.075
487.38	2.079
487.58	2.078
487.78	2.085
487.98	2.085
488.18	2.093
488.38	2.092
488.58	2.087
488.78	2.082
488.98	2.091
489.18	2.096
489.37	2.092
489.57	2.097
489.77	2.106
489.97	2.105
490.17	2.112
490.37	2.114
490.57	2.120
490.77	2.126
490.97	2.133
491.17	2.130
491.37	2.134
491.57	2.142
491.77	2.141
491.97	2.141
492.17	2.144
492.37	2.148
492.56	2.149
492.76	2.150
492.96	2.156
493.16	2.164
493.36	2.172
493.56	2.174
493.76	2.174
493.96	2.185
494.16	2.191
494.36	2.198
494.56	2.201
494.76	2.218
494.95	2.236
495.15	2.241
495.35	2.242
495.55	2.241
495.75	2.238
495.95	2.253
496.15	2.259
496.35	2.263
496.55	2.269
496.75	2.278
496.95	2.274
497.14	2.275
497.34	2.281
497.54	2.288
497.74	2.300
497.94	2.312
498.14	2.313
498.34	2.315
498.54	2.315
498.74	2.319
498.93	2.327
499.13	2.325
499.33	2.337
499.53	2.337
499.73	2.339
499.93	2.340
500.13	2.338
500.33	2.338
500.53	2.341
500.72	2.354
500.92	2.358
501.12	2.353
501.32	2.357
501.52	2.346
501.72	2.353
501.92	2.352
502.12	2.352
502.31	2.359
502.51	2.360
502.71	2.364
502.91	2.356
503.11	2.354
503.31	2.364
503.51	2.373
503.70	2.381
503.90	2.391
504.10	2.411
504.30	2.409
504.50	2.415
504.70	2.419
504.90	2.431
505.09	2.446
505.29	2.446
505.49	2.446
505.69	2.452
505.89	2.460
506.09	2.449
506.29	2.439
506.48	2.453
506.68	2.458
506.88	2.467
507.08	2.464
507.28	2.470
507.48	2.491
507.67	2.489
507.87	2.493
508.07	2.493
508.27	2.500
508.47	2.510
508.67	2.508
508.86	2.508
509.06	2.508
509.26	2.507
509.46	2.511
509.66	2.509
509.85	2.518
510.05	2.537
510.25	2.546
510.45	2.559
510.65	2.559
510.85	2.555
511.04	2.563
511.24	2.572
511.44	2.583
511.64	2.578
511.84	2.585
512.03	2.594
512.23	2.590
512.43	2.584
512.63	2.580
512.83	2.593
513.02	2.614
513.22	2.620
513.42	2.632
513.62	2.640
513.82	2.654
514.01	2.661
514.21	2.665
514.41	2.674
514.61	2.688
514.81	2.700
515.00	2.701
515.20	2.697
515.40	2.712
515.60	2.709
515.80	2.713
515.99	2.710
516.19	2.712
516.39	2.717
516.59	2.712
516.78	2.723
516.98	2.731
517.18	2.727
517.38	2.730
517.58	2.725
517.77	2.729
517.97	2.729
518.17	2.737
518.37	2.745
518.56	2.750
518.76	2.759
518.96	2.754
519.16	2.749
519.36	2.758
519.55	2.769
519.75	2.783
519.95	2.791
520.15	2.798
520.34	2.808
520.54	2.807
520.74	2.812
520.94	2.823
521.13	2.844
521.33	2.859
521.53	2.866
521.73	2.868
521.92	2.861
522.12	2.874
522.32	2.882
522.52	2.891
522.71	2.912
522.91	2.920
523.11	2.912
523.31	2.902
523.50	2.904
523.70	2.915
523.90	2.929
524.09	2.938
524.29	2.939
524.49	2.952
524.69	2.962
524.88	2.955
525.08	2.961
525.28	2.970
525.48	2.977
525.67	2.981
525.87	2.979
526.07	2.976
526.26	2.982
526.46	2.981
526.66	2.990
526.86	2.990
527.05	3.003
527.25	3.013
527.45	3.015
527.64	3.018
527.84	3.025
528.04	3.033
528.24	3.037
528.43	3.047
528.63	3.052
528.83	3.050
529.02	3.051
529.22	3.051
529.42	3.049
529.62	3.051
529.81	3.058
530.01	3.061
530.21	3.064
530.40	3.066
530.60	3.063
530.80	3.068
530.99	3.075
531.19	3.086
531.39	3.092
531.58	3.103
531.78	3.125
531.98	3.132
532.18	3.146
532.37	3.156
532.57	3.174
532.77	3.192
532.96	3.194
533.16	3.200
533.36	3.211
533.55	3.216
533.75	3.218
533.95	3.220
534.14	3.222
534.34	3.230
534.54	3.237
534.73	3.246
534.93	3.249
535.13	3.260
535.32	3.265
535.52	3.267
535.72	3.282
535.91	3.296
536.11	3.298
536.31	3.312
536.50	3.321
536.70	3.331
536.90	3.338
537.09	3.347
537.29	3.357
537.48	3.368
537.68	3.377
537.88	3.376
538.07	3.378
538.27	3.394
538.47	3.407
538.66	3.408
538.86	3.417
539.06	3.421
539.25	3.428
539.45	3.440
539.65	3.452
539.84	3.462
540.04	3.472
540.23	3.485
540.43	3.489
540.63	3.493
540.82	3.502
541.02	3.501
541.22	3.507
541.41	3.512
541.61	3.510
541.80	3.511
542.00	3.513
542.20	3.515
542.39	3.516
542.59	3.518
542.79	3.523
542.98	3.529
543.18	3.537
543.37	3.541
543.57	3.545
543.77	3.561
543.96	3.564
544.16	3.576
544.35	3.591
544.55	3.609
544.75	3.619
544.94	3.627
545.14	3.641
545.33	3.650
545.53	3.662
545.73	3.672
545.92	3.683
546.12	3.699
546.31	3.710
546.51	3.719
546.71	3.729
546.90	3.736
547.10	3.749
547.29	3.753
547.49	3.770
547.69	3.787
547.88	3.800
548.08	3.802
548.27	3.808
548.47	3.808
548.66	3.822
548.86	3.810
549.06	3.821
549.25	3.829
549.45	3.838
549.64	3.830
549.84	3.837
550.03	3.841
550.23	3.857
550.43	3.872
550.62	3.885
550.82	3.892
551.01	3.918
551.21	3.933
551.40	3.947
551.60	3.967
551.80	3.986
551.99	3.985
552.19	3.996
552.38	3.990
552.58	3.991
552.77	4.005
552.97	4.011
553.16	4.001
553.36	4.006
553.56	4.020
553.75	4.016
553.95	4.023
554.14	4.030
554.34	4.046
554.53	4.070
554.73	4.079
554.92	4.070
555.12	4.081
555.31	4.097
555.51	4.115
555.70	4.117
555.90	4.130
556.10	4.133
556.29	4.135
556.49	4.129
556.68	4.137
556.88	4.152
557.07	4.173
557.27	4.192
557.46	4.204
557.66	4.206
557.85	4.213
558.05	4.220
558.24	4.248
558.44	4.270
558.63	4.287
558.83	4.283
559.02	4.292
559.22	4.306
559.41	4.296
559.61	4.305
559.80	4.316
560.00	4.322
560.19	4.327
560.39	4.311
560.58	4.307
560.78	4.315
560.97	4.337
561.17	4.358
561.36	4.360
561.56	4.370
561.75	4.375
561.95	4.381
562.14	4.386
562.34	4.403
562.53	4.414
562.73	4.429
562.92	4.433
563.12	4.433
563.31	4.425
563.51	4.435
563.70	4.449
563.90	4.468
564.09	4.479
564.29	4.496
564.48	4.487
564.68	4.507
564.87	4.529
565.07	4.539
565.26	4.554
565.45	4.558
565.65	4.566
565.84	4.575
566.04	4.570
566.23	4.579
566.43	4.586
566.62	4.598
566.82	4.605
567.01	4.594
567.21	4.601
567.40	4.603
567.60	4.621
567.79	4.621
567.98	4.633
568.18	4.654
568.37	4.659
568.57	4.663
568.76	4.672
568.96	4.681
569.15	4.702
569.35	4.711
569.54	4.729
569.73	4.728
569.93	4.750
570.12	4.750
570.32	4.752
570.51	4.766
570.71	4.774
570.90	4.793
571.09	4.808
571.29	4.810
571.48	4.822
571.68	4.821
571.87	4.831
572.07	4.832
572.26	4.834
572.45	4.848
572.65	4.850
572.84	4.863
573.04	4.871
573.23	4.873
573.43	4.895
573.62	4.905
573.81	4.917
574.01	4.916
574.20	4.916
574.40	4.929
574.59	4.929
574.78	4.931
574.98	4.937
575.17	4.940
575.37	4.962
575.56	4.964
575.75	4.973
575.95	4.988
576.14	5.008
576.34	5.012
576.53	5.022
576.72	5.033
576.92	5.055
577.11	5.071
577.31	5.089
577.50	5.080
577.69	5.092
577.89	5.103
578.08	5.102
578.28	5.116
578.47	5.134
578.66	5.152
578.86	5.165
579.05	5.176
579.24	5.184
579.44	5.188
579.63	5.201
579.83	5.203
580.02	5.211
580.21	5.229
580.41	5.240
580.60	5.259
580.79	5.286
580.99	5.306
581.18	5.318
581.38	5.329
581.57	5.348
581.76	5.348
581.96	5.375
582.15	5.388
582.34	5.397
582.54	5.399
582.73	5.417
582.92	5.412
583.12	5.420
583.31	5.431
583.50	5.422
583.70	5.422
583.89	5.440
584.08	5.444
584.28	5.458
584.47	5.470
584.66	5.486
584.86	5.480
585.05	5.476
585.24	5.470
585.44	5.475
585.63	5.498
585.82	5.507
586.02	5.528
586.21	5.541
586.40	5.529
586.60	5.551
586.79	5.560
586.98	5.572
587.18	5.592
587.37	5.610
587.56	5.610
587.76	5.616
587.95	5.628
588.14	5.621
588.34	5.617
588.53	5.635
588.72	5.634
588.92	5.648
589.11	5.670
589.30	5.672
589.50	5.684
589.69	5.712
589.88	5.715
590.07	5.720
590.27	5.743
590.46	5.757
590.65	5.777
590.85	5.782
591.04	5.794
591.23	5.810
591.43	5.819
591.62	5.817
591.81	5.803
592.00	5.813
592.20	5.815
592.39	5.823
592.58	5.846
592.78	5.857
592.97	5.865
593.16	5.871
593.35	5.869
593.55	5.880
593.74	5.896
593.93	5.930
594.13	5.945
594.32	5.979
594.51	5.991
594.70	5.993
594.90	5.991
595.09	6.009
595.28	6.019
595.47	6.031
595.67	6.054
595.86	6.063
596.05	6.071
596.24	6.084
596.44	6.078
596.63	6.080
596.82	6.071
597.02	6.076
597.21	6.076
597.40	6.097
597.59	6.089
597.79	6.085
597.98	6.087
598.17	6.089
598.36	6.095
598.56	6.112
598.75	6.126
598.94	6.142
599.13	6.153
599.32	6.172
599.52	6.157
599.71	6.187
599.90	6.199
600.09	6.219
600.29	6.228
600.48	6.236
600.67	6.235
600.86	6.228
601.06	6.240
601.25	6.266
601.44	6.262
601.63	6.279
601.82	6.291
602.02	6.308
602.21	6.315
602.40	6.330
602.59	6.343
602.79	6.360
602.98	6.390
603.17	6.401
603.36	6.410
603.55	6.426
603.75	6.431
603.94	6.433
604.13	6.438
604.32	6.447
604.51	6.442
604.71	6.448
604.90	6.459
605.09	6.467
605.28	6.473
605.47	6.471
605.67	6.475
605.86	6.494
606.05	6.510
606.24	6.523
606.43	6.542
606.63	6.567
606.82	6.588
607.01	6.613
607.20	6.609
607.39	6.615
607.59	6.620
607.78	6.645
607.97	6.648
608.16	6.649
608.35	6.659
608.54	6.656
608.74	6.662
608.93	6.681
609.12	6.655
609.31	6.671
609.50	6.695
609.69	6.729
609.89	6.720
610.08	6.734
610.27	6.740
610.46	6.764
610.65	6.778
610.84	6.794
611.04	6.791
611.23	6.815
611.42	6.829
611.61	6.829
611.80	6.838
611.99	6.864
612.19	6.872
612.38	6.874
612.57	6.874
612.76	6.892
612.95	6.900
613.14	6.915
613.33	6.927
613.53	6.945
613.72	6.967
613.91	6.953
614.10	6.979
614.29	6.992
614.48	7.025
614.67	7.060
614.86	7.072
615.06	7.093
615.25	7.099
615.44	7.128
615.63	7.130
615.82	7.143
616.01	7.171
616.20	7.161
616.39	7.165
616.59	7.156
616.78	7.149
616.97	7.159
617.16	7.155
617.35	7.175
617.54	7.157
617.73	7.182
617.92	7.191
618.12	7.196
618.31	7.210
618.50	7.228
618.69	7.262
618.88	7.275
619.07	7.276
619.26	7.297
619.45	7.329
619.64	7.350
619.83	7.359
620.03	7.370
620.22	7.372
620.41	7.390
620.60	7.397
620.79	7.415
620.98	7.399
621.17	7.430
621.36	7.439
621.55	7.439
621.74	7.462
621.93	7.471
622.12	7.489
622.32	7.499
622.51	7.504
622.70	7.508
622.89	7.497
623.08	7.520
623.27	7.539
623.46	7.543
623.65	7.546
623.84	7.558
624.03	7.571
624.22	7.573
624.41	7.585
624.60	7.601
624.79	7.634
624.99	7.646
625.18	7.652
625.37	7.640
625.56	7.651
625.75	7.654
625.94	7.670
626.13	7.680
626.32	7.680
626.51	7.695
626.70	7.697
626.89	7.697
627.08	7.715
627.27	7.730
627.46	7.744
627.65	7.757
627.84	7.772
628.03	7.774
628.22	7.782
628.41	7.805
628.60	7.819
628.79	7.845
628.98	7.846
629.17	7.842
629.37	7.858
629.56	7.871
629.75	7.881
629.94	7.886
630.13	7.894
630.32	7.894
630.51	7.908
630.70	7.906
630.89	7.913
631.08	7.929
631.27	7.939
631.46	7.963
631.65	7.975
631.84	7.998
632.03	8.006
632.22	8.013
632.41	8.037
632.60	8.052
632.79	8.071
632.98	8.080
633.17	8.097
633.36	8.141
633.55	8.133
633.74	8.143
633.93	8.133
634.12	8.158
634.31	8.179
634.50	8.201
634.69	8.204
634.88	8.232
635.07	8.235
635.26	8.239
635.45	8.231
635.64	8.241
635.83	8.272
636.02	8.300
636.21	8.304
636.40	8.330
636.59	8.321
636.78	8.343
636.96	8.349
637.15	8.369
637.34	8.388
637.53	8.398
637.72	8.412
637.91	8.393
638.10	8.388
638.29	8.397
638.48	8.383
638.67	8.393
638.86	8.381
639.05	8.376
639.24	8.368
639.43	8.397
639.62	8.407
639.81	8.424
640.00	8.440
640.19	8.470
640.38	8.494
640.57	8.508
640.76	8.526
640.95	8.543
641.14	8.555
641.32	8.605
641.51	8.611
641.70	8.634
641.89	8.669
642.08	8.702
642.27	8.706
642.46	8.721
642.65	8.721
642.84	8.722
643.03	8.753
643.22	8.766
643.41	8.763
643.60	8.775
643.79	8.794
643.98	8.788
644.16	8.780
644.35	8.790
644.54	8.782
644.73	8.791
644.92	8.829
645.11	8.817
645.30	8.842
645.49	8.867
645.68	8.848
645.87	8.858
646.06	8.866
646.24	8.894
646.43	8.901
646.62	8.922
646.81	8.957
647.00	8.936
647.19	8.944
647.38	8.955
647.57	8.945
647.76	8.974
647.95	8.970
648.13	8.975
648.32	8.968
648.51	8.978
648.70	8.972
648.89	8.969
649.08	9.001
649.27	9.025
649.46	9.027
649.65	9.029
649.83	9.046
650.02	9.045
650.21	9.088
650.40	9.109
650.59	9.121
650.78	9.127
650.97	9.149
651.16	9.172
651.34	9.183
651.53	9.195
651.72	9.212
651.91	9.204
652.10	9.247
652.29	9.230
652.48	9.250
652.66	9.265
652.85	9.292
653.04	9.297
653.23	9.286
653.42	9.306
653.61	9.311
653.80	9.316
653.98	9.327
654.17	9.313
654.36	9.328
654.55	9.326
654.74	9.347
654.93	9.367
655.11	9.382
655.30	9.377
655.49	9.385
655.68	9.406
655.87	9.454
656.06	9.490
656.24	9.521
656.43	9.526
656.62	9.546
656.81	9.558
657.00	9.562
657.19	9.601
657.37	9.643
657.56	9.645
657.75	9.596
657.94	9.585
658.13	9.573
658.31	9.584
658.50	9.605
658.69	9.618
658.88	9.622
659.07	9.627
659.26	9.607
659.44	9.594
659.63	9.627
659.82	9.689
660.01	9.699
660.20	9.710
660.38	9.730
660.57	9.744
660.76	9.728
660.95	9.751
661.14	9.775
661.32	9.803
661.51	9.850
661.70	9.868
661.89	9.901
662.08	9.919
662.26	9.951
662.45	9.927
662.64	9.918
662.83	9.969
663.01	9.953
663.20	9.972
663.39	9.990
663.58	9.993
663.77	9.971
663.95	9.980
664.14	9.985
664.33	9.999
664.52	10.043
664.70	10.079
664.89	10.091
665.08	10.114
665.27	10.120
665.45	10.101
665.64	10.089
665.83	10.118
666.02	10.146
666.20	10.145
666.39	10.153
666.58	10.171
666.77	10.189
666.95	10.167
667.14	10.206
667.33	10.219
667.52	10.260
667.70	10.286
667.89	10.274
668.08	10.251
668.27	10.276
668.45	10.262
668.64	10.268
668.83	10.264
669.02	10.275
669.20	10.254
669.39	10.271
669.58	10.276
669.77	10.300
669.95	10.308
670.14	10.330
670.33	10.377
670.51	10.414
670.70	10.447
670.89	10.472
671.08	10.523
671.26	10.580
671.45	10.577
671.64	10.578
671.82	10.589
672.01	10.626
672.20	10.613
672.39	10.593
672.57	10.615
672.76	10.610
672.95	10.608
673.13	10.601
673.32	10.605
673.51	10.616
673.70	10.631
673.88	10.644
674.07	10.655
674.26	10.684
674.44	10.704
674.63	10.705
674.82	10.710
675.00	10.713
675.19	10.705
675.38	10.695
675.56	10.732
675.75	10.747
675.94	10.745
676.12	10.733
676.31	10.756
676.50	10.759
676.69	10.800
676.87	10.813
677.06	10.816
677.25	10.842
677.43	10.869
677.62	10.851
677.81	10.865
677.99	10.915
678.18	10.954
678.37	10.952
678.55	10.950
678.74	10.932
678.93	10.950
679.11	10.975
679.30	11.002
679.48	11.010
679.67	11.030
679.86	11.046
680.04	11.021
680.23	11.021
680.42	11.025
680.60	11.036
680.79	11.061
680.98	11.055
681.16	11.066
681.35	11.078
681.54	11.086
681.72	11.107
681.91	11.127
682.10	11.136
682.28	11.145
682.47	11.166
682.65	11.183
682.84	11.180
683.03	11.202
683.21	11.211
683.40	11.195
683.59	11.207
683.77	11.217
683.96	11.230
684.14	11.266
684.33	11.290
684.52	11.323
684.70	11.344
684.89	11.363
685.07	11.351
685.26	11.392
685.45	11.423
685.63	11.433
685.82	11.475
686.00	11.484
686.19	11.496
686.38	11.541
686.56	11.551
686.75	11.575
686.93	11.581
687.12	11.602
687.31	11.600
687.49	11.616
687.68	11.636
687.86	11.607
688.05	11.598
688.24	11.599
688.42	11.571
688.61	11.565
688.79	11.561
688.98	11.590
689.17	11.612
689.35	11.646
689.54	11.629
689.72	11.616
689.91	11.631
690.09	11.655
690.28	11.671
690.47	11.661
690.65	11.687
690.84	11.705
691.02	11.702
691.21	11.684
691.39	11.667
691.58	11.702
691.76	11.732
691.95	11.744
692.14	11.781
692.32	11.770
692.51	11.819
692.69	11.836
692.88	11.834
693.06	11.833
693.25	11.908
693.43	11.914
693.62	11.937
693.81	11.932
693.99	11.957
694.18	11.950
694.36	11.951
694.55	11.966
694.73	11.998
694.92	12.023
695.10	12.025
695.29	12.002
695.47	12.027
695.66	12.004
695.84	12.047
696.03	12.063
696.21	12.060
696.40	12.096
696.59	12.121
696.77	12.096
696.96	12.103
697.14	12.127
697.33	12.154
697.51	12.185
697.70	12.203
697.88	12.227
698.07	12.233
698.25	12.258
698.44	12.277
698.62	12.253
698.81	12.270
698.99	12.295
699.18	12.301
699.36	12.287
699.55	12.265
699.73	12.267
699.92	12.261
700.10	12.262
700.29	12.279
700.47	12.262
700.66	12.271
700.84	12.276
701.03	12.254
701.21	12.260
701.40	12.264
701.58	12.309
701.77	12.357
701.95	12.367
702.13	12.370
702.32	12.386
702.50	12.436
702.69	12.461
702.87	12.485
703.06	12.561
703.24	12.586
703.43	12.631
703.61	12.630
703.80	12.642
703.98	12.642
704.17	12.676
704.35	12.640
704.54	12.671
704.72	12.693
704.90	12.697
705.09	12.653
705.27	12.699
705.46	12.722
705.64	12.728
705.83	12.712
706.01	12.745
706.20	12.766
706.38	12.828
706.56	12.824
706.75	12.827
706.93	12.830
707.12	12.882
707.30	12.873
707.49	12.894
707.67	12.928
707.86	12.975
708.04	12.985
708.22	12.985
708.41	12.996
708.59	13.015
708.78	13.014
708.96	13.043
709.14	13.069
709.33	13.084
709.51	13.089
709.70	13.077
709.88	13.082
710.07	13.095
710.25	13.141
710.43	13.117
710.62	13.142
710.80	13.161
710.99	13.195
711.17	13.187
711.35	13.214
711.54	13.217
711.72	13.237
711.91	13.250
712.09	13.279
712.27	13.277
712.46	13.305
712.64	13.301
712.83	13.318
713.01	13.301
713.19	13.313
713.38	13.316
713.56	13.321
713.75	13.329
713.93	13.338
714.11	13.319
714.30	13.320
714.48	13.332
714.66	13.345
714.85	13.384
715.03	13.417
715.22	13.411
715.40	13.412
715.58	13.433
715.77	13.487
715.95	13.507
716.13	13.548
716.32	13.553
716.50	13.572
716.68	13.596
716.87	13.590
717.05	13.580
717.24	13.628
717.42	13.622
717.60	13.642
717.79	13.629
717.97	13.635
718.15	13.618
718.34	13.634
718.52	13.672
718.70	13.657
718.89	13.692
719.07	13.673
719.25	13.687
719.44	13.747
719.62	13.775
719.80	13.774
719.99	13.764
720.17	13.776
720.35	13.807
720.54	13.760
720.72	13.766
720.90	13.733
721.09	13.811
721.27	13.815
721.45	13.766
721.64	13.764
721.82	13.785
722.00	13.824
722.19	13.846
722.37	13.844
722.55	13.898
722.74	13.919
722.92	13.973
723.10	13.961
723.28	13.991
723.47	14.068
723.65	14.101
723.83	14.113
724.02	14.097
724.20	14.156
724.38	14.181
724.57	14.191
724.75	14.245
724.93	14.261
725.11	14.280
725.30	14.252
725.48	14.285
725.66	14.314
725.85	14.364
726.03	14.375
726.21	14.342
726.39	14.360
726.58	14.382
726.76	14.387
726.94	14.395
727.13	14.399
727.31	14.429
727.49	14.422
727.67	14.422
727.86	14.431
728.04	14.484
728.22	14.499
728.40	14.543
728.59	14.537
728.77	14.560
728.95	14.585
729.13	14.593
729.32	14.600
729.50	14.607
729.68	14.597
729.86	14.589
730.05	14.607
730.23	14.631
730.41	14.585
730.59	14.613
730.78	14.622
730.96	14.622
731.14	14.658
731.32	14.707
731.51	14.714
731.69	14.737
731.87	14.742
732.05	14.710
732.24	14.731
732.42	14.764
732.60	14.774
732.78	14.772
732.97	14.776
733.15	14.806
733.33	14.814
733.51	14.820
733.69	14.845
733.88	14.833
734.06	14.889
734.24	14.877
734.42	14.879
734.60	14.882
734.79	14.908
734.97	14.930
735.15	14.913
735.33	14.889
735.52	14.914
735.70	14.907
735.88	14.934
736.06	14.932
736.24	14.948
736.43	14.990
736.61	15.001
736.79	14.993
736.97	14.961
737.15	14.982
737.34	14.993
737.52	14.992
737.70	14.998
737.88	15.051
738.06	15.012
738.24	15.068
738.43	15.046
738.61	15.067
738.79	15.117
738.97	15.175
739.15	15.170
739.33	15.185
739.52	15.177
739.70	15.171
739.88	15.147
740.06	15.194
740.24	15.165
740.42	15.200
740.61	15.185
740.79	15.192
740.97	15.210
741.15	15.243
741.33	15.293
741.51	15.339
741.70	15.394
741.88	15.450
742.06	15.443
742.24	15.481
742.42	15.453
742.60	15.527
742.78	15.500
742.97	15.493
743.15	15.504
743.33	15.496
743.51	15.488
743.69	15.479
743.87	15.463
744.05	15.529
744.24	15.549
744.42	15.641
744.60	15.644
744.78	15.724
744.96	15.732
745.14	15.793
745.32	15.799
745.50	15.807
745.69	15.826
745.87	15.870
746.05	15.881
746.23	15.867
746.41	15.834
746.59	15.817
746.77	15.784
746.95	15.793
747.13	15.692
747.32	15.695
747.50	15.721
747.68	15.743
747.86	15.744
748.04	15.734
748.22	15.776
748.40	15.860
748.58	15.860
748.76	15.876
748.94	15.894
749.13	15.953
749.31	15.977
749.49	16.024
749.67	16.036
749.85	16.084
750.03	16.135
750.21	16.116
750.39	16.080
750.57	16.131
750.75	16.130
750.93	16.087
751.11	16.129
751.30	16.170
751.48	16.203
751.66	16.245
751.84	16.234
752.02	16.245
752.20	16.279
752.38	16.295
752.56	16.282
752.74	16.322
752.92	16.397
753.10	16.432
753.28	16.418
753.46	16.418
753.64	16.403
753.82	16.430
754.00	16.385
754.18	16.433
754.37	16.386
754.55	16.454
754.73	16.456
754.91	16.503
755.09	16.513
755.27	16.570
755.45	16.543
755.63	16.555
755.81	16.543
755.99	16.579
756.17	16.519
756.35	16.576
756.53	16.565
756.71	16.568
756.89	16.562
757.07	16.502
757.25	16.431
757.43	16.472
757.61	16.425
757.79	16.439
757.97	16.448
758.15	16.498
758.33	16.598
758.51	16.640
758.69	16.677
758.87	16.672
759.05	16.708
759.23	16.792
759.41	16.815
759.59	16.869
759.77	16.901
759.95	16.895
760.13	16.914
760.31	16.830
760.49	16.833
760.67	16.862
760.85	16.889
761.03	16.960
761.21	16.943
761.39	16.956
761.57	16.997
761.75	17.002
761.93	17.039
762.11	17.007
762.29	17.010
762.47	17.071
762.65	17.056
762.83	17.090
763.01	17.117
763.19	17.142
763.37	17.164
763.55	17.171
763.73	17.214
763.91	17.270
764.09	17.342
764.27	17.388
764.45	17.343
764.63	17.348
764.81	17.326
764.99	17.287
765.16	17.273
765.34	17.278
765.52	17.283
765.70	17.269
765.88	17.245
766.06	17.220
766.24	17.186
766.42	17.187
766.60	17.178
766.78	17.219
766.96	17.250
767.14	17.278
767.32	17.305
767.50	17.261
767.68	17.235
767.86	17.230
768.03	17.253
768.21	17.315
768.39	17.313
768.57	17.339
768.75	17.344
768.93	17.365
769.11	17.395
769.29	17.357
769.47	17.402
769.65	17.478
769.83	17.567
770.01	17.636
770.19	17.592
770.36	17.672
770.54	17.708
770.72	17.688
770.90	17.691
771.08	17.731
771.26	17.754
771.44	17.825
771.62	17.833
771.80	17.786
771.98	17.751
772.15	17.828
772.33	17.787
772.51	17.789
772.69	17.821
772.87	17.860
773.05	17.791
773.23	17.813
773.41	17.846
773.58	17.838
773.76	17.880
773.94	17.822
774.12	17.836
774.30	17.895
774.48	17.882
774.66	17.793
774.84	17.807
775.01	17.890
775.19	17.915
775.37	17.932
775.55	17.882
775.73	17.863
775.91	17.955
776.09	18.014
776.26	17.965
776.44	18.006
776.62	18.080
776.80	17.998
776.98	18.002
777.16	17.956
777.34	17.950
777.51	18.029
777.69	18.070
777.87	18.021
778.05	17.941
778.23	18.023
778.41	18.024
778.58	18.027
778.76	18.130
778.94	18.089
779.12	18.206
779.30	18.167
779.48	18.164
779.65	18.151
779.83	18.204
780.01	18.256
780.19	18.282
780.37	18.399
780.55	18.456
780.72	18.506
780.90	18.513
781.08	18.501
781.26	18.674
781.44	18.669
781.61	18.704
781.79	18.739
781.97	18.695
782.15	18.664
782.33	18.513
782.50	18.497
782.68	18.431
782.86	18.451
783.04	18.394
783.22	18.315
783.39	18.301
783.57	18.296
783.75	18.296
783.93	18.352
784.11	18.423
784.28	18.337
784.46	18.379
784.64	18.431
784.82	18.479
784.99	18.529
785.17	18.471
785.35	18.568
785.53	18.614
785.71	18.643
785.88	18.645
786.06	18.558
786.24	18.768
786.42	18.749
786.59	18.748
786.77	18.798
786.95	18.882
787.13	18.952
787.30	18.923
787.48	18.944
787.66	19.016
787.84	19.037
788.01	19.111
788.19	19.108
788.37	19.193
788.55	19.290
788.72	19.288
788.90	19.265
789.08	19.318
789.26	19.324
789.43	19.348
789.61	19.289
789.79	19.343
789.97	19.332
790.14	19.376
790.32	19.358
790.50	19.263
790.68	19.247
790.85	19.250
791.03	19.191
791.21	19.280
791.38	19.226
791.56	19.173
791.74	19.179
791.92	19.169
792.09	19.150
792.27	19.217
792.45	19.271
792.62	19.213
792.80	19.227
792.98	19.122
793.16	19.147
793.33	19.160
793.51	19.267
793.69	19.252
793.86	19.238
794.04	19.235
794.22	19.200
794.39	19.212
794.57	19.268
794.75	19.302
794.93	19.515
795.10	19.430
795.28	19.491
795.46	19.497
795.63	19.513
795.81	19.634
795.99	19.651
796.16	19.710
796.34	19.820
796.52	19.792
796.69	19.798
796.87	19.788
797.05	19.908
797.22	19.916
797.40	19.967
797.58	19.954
797.75	19.948
797.93	20.003
798.11	20.062
798.28	20.025
798.46	20.114
798.64	20.052
798.81	20.005
798.99	19.883
799.17	19.876
799.34	19.866
799.52	19.922
799.70	19.865
799.87	19.854
800.05	19.702
800.22	19.699
800.40	19.733
800.58	19.816
800.75	19.910
800.93	20.058
801.11	20.011
801.28	20.065
801.46	20.039
801.63	20.110
801.81	20.196
801.99	20.289
802.16	20.289
802.34	20.283
802.52	20.243
802.69	20.204
802.87	20.065
803.04	20.177
803.22	20.159
803.40	20.149
803.57	20.173
803.75	20.111
803.93	20.097
804.10	20.037
804.28	20.013
804.45	20.034
804.63	20.066
804.81	20.292
804.98	20.404
805.16	20.419
805.33	20.538
805.51	20.598
805.68	20.647
805.86	20.688
806.04	20.784
806.21	20.898
806.39	20.988
806.56	20.959
806.74	20.766
806.92	20.700
807.09	20.690
807.27	20.570
807.44	20.573
807.62	20.535
807.79	20.568
807.97	20.531
808.15	20.426
808.32	20.405
808.50	20.484
808.67	20.576
808.85	20.538
809.02	20.596
809.20	20.594
809.38	20.519
809.55	20.497
809.73	20.503
809.90	20.566
810.08	20.569
810.25	20.556
810.43	20.531
810.60	20.519
810.78	20.624
810.95	20.540
811.13	20.692
811.31	20.738
811.48	20.862
811.66	20.843
811.83	20.858
812.01	20.988
812.18	20.932
812.36	20.924
812.53	20.870
812.71	20.824
812.88	20.915
813.06	20.880
813.23	20.755
813.41	20.844
813.58	20.850
813.76	20.836
813.93	20.639
814.11	20.758
814.28	20.851
814.46	21.042
814.63	21.119
814.81	21.151
814.98	21.198
815.16	21.410
815.33	21.256
815.51	21.357
815.68	21.303
815.86	21.527
816.03	21.403
816.21	21.260
816.38	21.182
816.56	21.058
816.73	21.146
816.91	21.149
817.08	21.167
817.26	21.219
817.43	21.251
817.61	21.317
817.78	21.337
817.96	21.428
818.13	21.605
818.31	21.686
818.48	21.800
818.66	21.691
818.83	21.684
819.01	21.580
819.18	21.611
819.36	21.662
819.53	21.636
819.70	21.600
819.88	21.788
820.05	21.721
820.23	21.738
820.40	21.736
820.58	21.745
820.75	21.819
820.93	21.848
821.10	21.860
821.28	21.875
821.45	21.942
821.62	22.059
821.80	22.027
821.97	22.123
822.15	22.172
822.32	22.279
822.50	22.478
822.67	22.718
822.84	22.841
823.02	22.831
823.19	22.712
823.37	22.549
823.54	22.403
823.72	22.243
823.89	22.112
824.06	22.034
824.24	21.958
824.41	21.870
824.59	21.763
824.76	21.671
824.94	21.571
825.11	21.485
825.28	21.439
825.46	21.395
825.63	21.415
825.81	21.456
825.98	21.463
826.15	21.496
826.33	21.560
826.50	21.600
826.68	21.624
826.85	21.680
827.02	21.755
827.20	21.863
827.37	22.011
827.54	22.157
827.72	22.339
827.89	22.535
828.07	22.633
828.24	22.619
828.41	22.593
828.59	22.565
828.76	22.529
828.94	22.497
829.11	22.431
829.28	22.357
829.46	22.286
829.63	22.184
829.80	22.093
829.98	22.001
830.15	21.948
830.32	21.940
830.50	21.921
830.67	21.959
830.85	22.016
831.02	22.075
831.19	22.116
831.37	22.150
831.54	22.168
831.71	22.184
831.89	22.283
832.06	22.418
832.23	22.429
832.41	22.441
832.58	22.490
832.75	22.513
832.93	22.584
833.10	22.597
833.27	22.660
833.45	22.748
833.62	22.726
833.79	22.770
833.97	22.811
834.14	22.920
834.31	23.190
834.49	23.294
834.66	23.279
834.83	23.285
835.01	23.235
835.18	23.152
835.35	23.102
835.52	23.062
835.70	22.960
835.87	22.890
836.04	22.858
836.22	22.721
836.39	22.576
836.56	22.527
836.74	22.487
836.91	22.484
837.08	22.497
837.25	22.494
837.43	22.440
837.60	22.471
837.77	22.456
837.95	22.495
838.12	22.553
838.29	22.672
838.46	22.695
838.64	22.611
838.81	22.480
838.98	22.560
839.16	22.599
839.33	22.665
839.50	22.725
839.67	23.007
839.85	22.859
840.02	23.033
840.19	22.904
840.36	23.162
840.54	23.235
840.71	23.525
840.88	23.554
841.06	23.531
841.23	23.665
841.40	23.638
841.57	23.525
841.75	23.565
841.92	23.396
842.09	23.480
842.26	23.290
842.44	23.253
842.61	23.143
842.78	23.134
842.95	23.210
843.12	23.121
843.30	23.037
843.47	23.028
843.64	22.978
843.81	23.101
843.99	23.102
844.16	23.153
844.33	23.188
844.50	23.270
844.68	23.143
844.85	22.892
845.02	23.021
845.19	23.214
845.36	23.060
845.54	23.043
845.71	23.072
845.88	23.114
846.05	22.919
846.22	23.045
846.40	23.309
846.57	23.619
846.74	23.756
846.91	23.364
847.08	23.409
847.26	23.662
847.43	23.756
847.60	23.814
847.77	23.929
847.94	24.172
848.12	24.155
848.29	23.978
848.46	23.603
848.63	23.605
848.80	24.030
848.98	24.196
849.15	24.184
849.32	24.083
849.49	23.883
849.66	23.775
849.83	23.735
850.01	23.572
850.18	23.251
850.35	23.280
850.52	23.448
850.69	23.173
850.86	23.244
851.04	22.971
851.21	23.337
851.38	23.205
851.55	23.193
851.72	23.008
851.89	23.142
852.06	23.313
852.24	23.337
852.41	23.577
852.58	23.746
852.75	23.317
852.92	23.520
853.09	23.687
853.26	24.022
853.44	24.246
853.61	24.512
853.78	24.267
853.95	24.516
854.12	24.267
854.29	24.153
854.46	24.347
854.64	24.670
854.81	24.862
854.98	24.554
855.15	24.459
855.32	24.310
855.49	24.316
855.66	24.323
855.83	24.078
856.00	24.344
856.18	24.388
856.35	24.020
856.52	23.799
856.69	23.572
856.86	23.531
857.03	23.673
857.20	23.972
857.37	24.222
857.54	24.413
857.71	24.407
857.89	24.660
858.06	24.203
858.23	24.194
858.40	24.186
858.57	24.196
858.74	24.280
858.91	24.016
859.08	23.751
859.25	23.723
859.42	23.580
859.59	23.769
859.76	23.596
859.94	23.851
860.11	24.053
860.28	24.348
860.45	24.579
860.62	24.504
860.79	24.625
860.96	24.707
861.13	24.074
861.30	24.306
861.47	24.237
861.64	24.503
861.81	24.149
861.98	24.171
862.15	24.041
862.32	23.948
862.49	23.750
862.66	23.813
862.83	23.700
863.01	24.405
863.18	24.195
863.35	24.127
863.52	24.192
863.69	24.263
863.86	24.364
864.03	24.564
864.20	24.771
864.37	24.927
864.54	24.896
864.71	25.220
864.88	24.924
865.05	25.027
865.22	25.044
865.39	24.978
865.56	25.481
865.73	25.506
865.90	25.423
866.07	25.367
866.24	25.443
866.41	25.353
866.58	24.961
866.75	25.043
866.92	25.307
867.09	25.312
867.26	25.363
867.43	25.043
867.60	25.056
867.77	24.978
867.94	25.000
868.11	25.175
868.28	25.569
868.45	25.469
868.62	25.683
868.79	25.501
868.96	25.647
869.13	25.517
869.30	25.458
869.47	25.276
869.64	25.464
869.81	25.403
869.98	25.297
870.15	25.332
870.32	25.386
870.49	24.974
870.66	25.216
870.83	25.313
871.00	25.233
871.16	25.451
871.33	25.575
871.50	25.128
871.67	25.267
871.84	25.195
872.01	24.839
872.18	25.067
872.35	25.431
872.52	25.338
872.69	24.869
872.86	24.984
873.03	25.048
873.20	24.948
873.37	25.096
873.54	25.076
873.71	25.071
873.88	25.174
874.05	25.223
874.21	25.329
874.38	24.945
874.55	25.304
874.72	25.139
874.89	24.884
875.06	25.054
875.23	25.092
875.40	25.106
875.57	25.278
875.74	25.390
875.91	25.397
876.08	25.275
876.24	25.567
876.41	25.575
876.58	26.061
876.75	26.105
876.92	26.181
877.09	26.451
877.26	26.637
877.43	26.425
877.60	26.426
877.77	26.337
877.93	26.184
878.10	26.207
878.27	26.124
878.44	25.557
878.61	25.887
878.78	25.924
878.95	25.644
879.12	25.471
879.28	25.560
879.45	25.635
879.62	25.784
879.79	25.689
879.96	25.985
880.13	25.845
880.30	26.274
880.47	26.150
880.63	26.175
880.80	26.274
880.97	26.325
881.14	26.395
881.31	26.480
881.48	26.380
881.65	26.823
881.81	26.887
881.98	27.278
882.15	27.312
882.32	27.470
882.49	27.502
882.66	27.457
882.82	27.337
882.99	27.190
883.16	27.061
883.33	26.957
883.50	26.816
883.67	26.705
883.83	26.582
884.00	26.472
884.17	26.342
884.34	26.223
884.51	26.113
884.68	26.012
884.84	25.939
885.01	25.874
885.18	25.845
885.35	25.803
885.52	25.768
885.68	25.743
885.85	25.710
886.02	25.817
886.19	25.460
886.36	25.526
886.53	26.018
886.69	25.313
>>>>>End Spectral Data<<<<<
