OOIBase32 Version 2.0.6.5 Data File
++++++++++++++++++++++++++++++++++++
Date: 03-24-2011, 10:55:44
User: Valued Ocean Optics Customer
Spectrometer Serial Number: USB4C01507
Spectrometer Channel: Master
Integration Time (msec): 46
Spectra Averaged: 30
Boxcar Smoothing: 5
Correct for Electrical Dark: Enabled
Time Normalized: Disabled
Dual-beam Reference: Disabled
Reference Channel: Master
Temperature: Not acquired
Spectrometer Type: S4000
ADC Type: USB4000
Number of Pixels in File: 3648
Graph Title: 
>>>>>Begin Spectral Data<<<<<
179.17	1127.348
179.39	2645.449
179.60	106.105
179.82	43.169
180.03	329.690
180.24	-67.714
180.46	3.262
180.67	262.921
180.89	-112.576
181.10	-0.382
181.31	97.763
181.53	-23.686
181.74	82.202
181.96	-80.978
182.17	-5.393
182.39	-34.525
182.60	137.281
182.81	160.621
183.03	66.285
183.24	-173.877
183.46	23.610
183.67	14.522
183.88	6.222
184.10	19.607
184.31	21.203
184.53	25.895
184.74	19.886
184.96	15.458
185.17	12.963
185.38	12.045
185.60	32.765
185.81	34.661
186.03	38.751
186.24	35.932
186.45	34.143
186.67	31.937
186.88	33.616
187.10	36.816
187.31	37.597
187.52	40.735
187.74	43.125
187.95	35.060
188.17	17.662
188.38	16.455
188.59	7.856
188.81	4.221
189.02	11.189
189.24	7.885
189.45	9.530
189.66	8.809
189.88	5.975
190.09	6.463
190.30	-0.729
190.52	14.057
190.73	13.876
190.95	18.439
191.16	21.192
191.37	12.872
191.59	8.844
191.80	12.770
192.02	17.748
192.23	19.649
192.44	9.610
192.66	10.665
192.87	-5.137
193.08	-6.489
193.30	0.667
193.51	-2.446
193.73	4.794
193.94	8.835
194.15	5.001
194.37	0.369
194.58	5.582
194.79	-0.468
195.01	3.984
195.22	11.678
195.44	10.074
195.65	2.443
195.86	4.102
196.08	-2.217
196.29	-0.546
196.50	1.602
196.72	7.962
196.93	11.926
197.14	15.659
197.36	13.807
197.57	9.528
197.79	9.547
198.00	10.064
198.21	11.864
198.43	18.417
198.64	18.129
198.85	21.362
199.07	16.528
199.28	11.758
199.49	9.356
199.71	14.686
199.92	20.343
200.13	18.416
200.35	23.250
200.56	19.377
200.78	16.382
200.99	14.580
201.20	8.893
201.42	11.841
201.63	7.730
201.84	14.321
202.06	12.967
202.27	10.155
202.48	15.097
202.70	10.737
202.91	11.507
203.12	7.764
203.34	5.664
203.55	6.350
203.76	3.703
203.98	12.693
204.19	10.722
204.40	8.686
204.62	9.061
204.83	4.924
205.04	8.077
205.26	9.599
205.47	11.410
205.68	12.872
205.90	14.047
206.11	15.188
206.32	5.731
206.54	4.376
206.75	4.185
206.96	3.950
207.18	7.812
207.39	7.568
207.60	8.367
207.82	7.924
208.03	8.019
208.24	8.371
208.45	11.465
208.67	12.008
208.88	10.021
209.09	9.882
209.31	8.601
209.52	6.589
209.73	7.260
209.95	9.714
210.16	11.015
210.37	11.647
210.59	11.913
210.80	10.101
211.01	12.890
211.23	13.356
211.44	10.525
211.65	11.267
211.86	10.287
212.08	8.501
212.29	6.236
212.50	5.300
212.72	0.357
212.93	-2.680
213.14	-2.955
213.36	-4.976
213.57	-3.675
213.78	0.276
213.99	3.604
214.21	6.208
214.42	9.528
214.63	9.634
214.85	7.710
215.06	8.458
215.27	11.579
215.49	12.162
215.70	13.599
215.91	11.405
216.12	10.798
216.34	9.920
216.55	9.174
216.76	8.593
216.98	5.395
217.19	6.254
217.40	11.802
217.61	10.591
217.83	9.706
218.04	8.167
218.25	8.594
218.47	7.956
218.68	8.036
218.89	8.825
219.10	9.636
219.32	8.591
219.53	8.875
219.74	7.915
219.95	7.494
220.17	6.961
220.38	7.615
220.59	7.854
220.81	8.586
221.02	8.283
221.23	7.757
221.44	6.183
221.66	7.406
221.87	7.267
222.08	6.940
222.29	6.786
222.51	7.770
222.72	7.101
222.93	7.590
223.14	8.530
223.36	7.409
223.57	7.669
223.78	7.816
223.99	8.161
224.21	8.214
224.42	6.645
224.63	6.618
224.84	6.465
225.06	7.438
225.27	7.649
225.48	6.583
225.69	7.239
225.91	7.097
226.12	6.362
226.33	6.752
226.54	6.551
226.76	6.564
226.97	6.313
227.18	5.927
227.39	5.380
227.61	5.132
227.82	5.177
228.03	5.035
228.24	4.775
228.46	4.942
228.67	4.791
228.88	4.754
229.09	4.668
229.31	4.688
229.52	4.715
229.73	4.874
229.94	5.110
230.16	5.030
230.37	5.064
230.58	5.402
230.79	5.207
231.00	5.285
231.22	5.341
231.43	5.811
231.64	5.565
231.85	5.401
232.07	5.347
232.28	5.017
232.49	5.082
232.70	5.050
232.91	5.185
233.13	5.263
233.34	4.930
233.55	4.924
233.76	4.755
233.98	5.187
234.19	5.231
234.40	5.196
234.61	5.277
234.82	5.253
235.04	5.398
235.25	5.419
235.46	5.196
235.67	5.426
235.88	5.487
236.10	5.367
236.31	4.978
236.52	5.101
236.73	5.516
236.94	5.660
237.16	5.488
237.37	5.565
237.58	5.323
237.79	5.910
238.01	5.642
238.22	5.505
238.43	5.520
238.64	5.676
238.85	5.467
239.06	5.068
239.28	4.429
239.49	4.562
239.70	4.408
239.91	4.345
240.12	4.113
240.34	4.185
240.55	4.273
240.76	4.347
240.97	4.208
241.18	4.217
241.40	4.199
241.61	4.436
241.82	4.466
242.03	4.477
242.24	4.483
242.45	4.508
242.67	4.514
242.88	4.450
243.09	4.318
243.30	4.280
243.51	4.490
243.73	4.456
243.94	4.330
244.15	4.285
244.36	4.307
244.57	4.492
244.78	4.372
245.00	4.379
245.21	4.323
245.42	4.205
245.63	4.211
245.84	4.107
246.05	4.070
246.27	4.074
246.48	4.014
246.69	3.983
246.90	3.949
247.11	3.883
247.32	3.834
247.54	3.862
247.75	3.908
247.96	3.899
248.17	3.887
248.38	3.965
248.59	3.958
248.81	3.939
249.02	3.916
249.23	3.725
249.44	3.813
249.65	3.829
249.86	3.506
250.07	3.644
250.29	3.543
250.50	3.346
250.71	3.250
250.92	3.150
251.13	3.217
251.34	3.297
251.55	3.311
251.77	3.424
251.98	3.543
252.19	3.796
252.40	3.582
252.61	3.633
252.82	3.713
253.03	3.759
253.25	3.853
253.46	3.897
253.67	3.969
253.88	4.028
254.09	4.054
254.30	3.741
254.51	3.560
254.73	3.741
254.94	3.887
255.15	4.073
255.36	4.009
255.57	3.906
255.78	3.908
255.99	3.774
256.20	3.936
256.42	3.807
256.63	3.806
256.84	3.713
257.05	3.725
257.26	3.523
257.47	3.342
257.68	3.408
257.89	3.438
258.10	3.493
258.32	3.418
258.53	3.339
258.74	3.261
258.95	3.241
259.16	3.261
259.37	3.209
259.58	3.186
259.79	3.230
260.00	3.226
260.22	3.219
260.43	3.221
260.64	3.199
260.85	3.281
261.06	3.315
261.27	3.355
261.48	3.322
261.69	3.319
261.90	3.388
262.12	3.307
262.33	3.273
262.54	3.309
262.75	3.095
262.96	3.026
263.17	2.961
263.38	2.958
263.59	3.006
263.80	2.995
264.01	3.102
264.22	3.103
264.44	3.085
264.65	2.915
264.86	2.816
265.07	2.773
265.28	2.845
265.49	2.773
265.70	2.893
265.91	2.944
266.12	2.973
266.33	2.940
266.54	3.036
266.75	3.048
266.97	3.136
267.18	3.232
267.39	3.237
267.60	3.249
267.81	3.206
268.02	3.092
268.23	3.134
268.44	3.084
268.65	3.049
268.86	2.973
269.07	2.914
269.28	2.775
269.49	2.759
269.70	2.799
269.92	2.730
270.13	2.779
270.34	2.918
270.55	2.785
270.76	2.829
270.97	2.879
271.18	2.858
271.39	2.880
271.60	3.051
271.81	3.061
272.02	3.094
272.23	3.169
272.44	3.189
272.65	3.100
272.86	3.134
273.07	3.140
273.28	3.188
273.49	3.151
273.71	3.204
273.92	3.170
274.13	3.007
274.34	2.931
274.55	2.899
274.76	2.805
274.97	2.858
275.18	2.868
275.39	2.826
275.60	2.757
275.81	2.795
276.02	2.799
276.23	2.760
276.44	2.877
276.65	3.035
276.86	3.033
277.07	3.071
277.28	3.086
277.49	3.132
277.70	3.083
277.91	3.145
278.12	3.079
278.33	2.964
278.54	3.017
278.75	3.039
278.96	2.982
279.17	3.010
279.39	3.046
279.60	2.914
279.81	2.819
280.02	2.801
280.23	2.724
280.44	2.713
280.65	2.703
280.86	2.621
281.07	2.619
281.28	2.609
281.49	2.454
281.70	2.490
281.91	2.565
282.12	2.574
282.33	2.644
282.54	2.607
282.75	2.710
282.96	2.874
283.17	2.973
283.38	2.906
283.59	2.836
283.80	2.857
284.01	2.755
284.22	2.766
284.43	2.781
284.64	2.720
284.85	2.799
285.06	2.759
285.27	2.679
285.48	2.641
285.69	2.655
285.90	2.739
286.11	2.884
286.32	2.853
286.53	2.789
286.74	2.836
286.95	2.907
287.16	2.907
287.37	2.838
287.58	2.797
287.79	2.734
288.00	2.737
288.21	2.656
288.42	2.514
288.63	2.566
288.84	2.578
289.05	2.612
289.26	2.579
289.47	2.540
289.68	2.563
289.89	2.556
290.10	2.524
290.31	2.453
290.51	2.438
290.72	2.487
290.93	2.570
291.14	2.611
291.35	2.474
291.56	2.480
291.77	2.386
291.98	2.391
292.19	2.441
292.40	2.459
292.61	2.494
292.82	2.515
293.03	2.531
293.24	2.398
293.45	2.355
293.66	2.385
293.87	2.408
294.08	2.391
294.29	2.468
294.50	2.440
294.71	2.493
294.92	2.611
295.13	2.612
295.34	2.524
295.55	2.639
295.76	2.579
295.96	2.526
296.17	2.546
296.38	2.626
296.59	2.572
296.80	2.559
297.01	2.517
297.22	2.458
297.43	2.453
297.64	2.518
297.85	2.465
298.06	2.492
298.27	2.542
298.48	2.501
298.69	2.429
298.90	2.449
299.11	2.452
299.32	2.449
299.53	2.428
299.73	2.409
299.94	2.412
300.15	2.407
300.36	2.460
300.57	2.484
300.78	2.442
300.99	2.509
301.20	2.432
301.41	2.448
301.62	2.497
301.83	2.511
302.04	2.499
302.25	2.426
302.45	2.404
302.66	2.330
302.87	2.311
303.08	2.384
303.29	2.350
303.50	2.439
303.71	2.480
303.92	2.464
304.13	2.460
304.34	2.514
304.55	2.540
304.76	2.573
304.96	2.615
305.17	2.575
305.38	2.532
305.59	2.540
305.80	2.509
306.01	2.478
306.22	2.400
306.43	2.418
306.64	2.359
306.85	2.379
307.06	2.326
307.26	2.358
307.47	2.347
307.68	2.381
307.89	2.385
308.10	2.395
308.31	2.418
308.52	2.476
308.73	2.470
308.94	2.468
309.14	2.447
309.35	2.504
309.56	2.508
309.77	2.500
309.98	2.475
310.19	2.494
310.40	2.457
310.61	2.431
310.82	2.430
311.02	2.393
311.23	2.378
311.44	2.344
311.65	2.318
311.86	2.312
312.07	2.312
312.28	2.254
312.49	2.241
312.69	2.278
312.90	2.205
313.11	2.161
313.32	2.172
313.53	2.200
313.74	2.152
313.95	2.106
314.16	2.045
314.36	2.115
314.57	2.230
314.78	2.232
314.99	2.200
315.20	2.245
315.41	2.304
315.62	2.287
315.82	2.280
316.03	2.321
316.24	2.332
316.45	2.415
316.66	2.382
316.87	2.349
317.08	2.341
317.28	2.356
317.49	2.319
317.70	2.320
317.91	2.332
318.12	2.361
318.33	2.390
318.54	2.413
318.74	2.368
318.95	2.377
319.16	2.415
319.37	2.402
319.58	2.388
319.79	2.406
319.99	2.406
320.20	2.387
320.41	2.377
320.62	2.363
320.83	2.379
321.04	2.376
321.24	2.340
321.45	2.357
321.66	2.367
321.87	2.363
322.08	2.388
322.29	2.324
322.49	2.340
322.70	2.298
322.91	2.323
323.12	2.325
323.33	2.321
323.54	2.287
323.74	2.212
323.95	2.178
324.16	2.191
324.37	2.155
324.58	2.192
324.79	2.176
324.99	2.163
325.20	2.188
325.41	2.183
325.62	2.157
325.83	2.214
326.03	2.158
326.24	2.155
326.45	2.100
326.66	2.141
326.87	2.154
327.07	2.162
327.28	2.171
327.49	2.134
327.70	2.131
327.91	2.175
328.11	2.134
328.32	2.201
328.53	2.261
328.74	2.324
328.95	2.307
329.15	2.344
329.36	2.387
329.57	2.366
329.78	2.379
329.99	2.352
330.19	2.276
330.40	2.279
330.61	2.274
330.82	2.212
331.03	2.156
331.23	2.167
331.44	2.142
331.65	2.104
331.86	2.180
332.07	2.156
332.27	2.144
332.48	2.185
332.69	2.210
332.90	2.211
333.10	2.246
333.31	2.259
333.52	2.241
333.73	2.239
333.94	2.199
334.14	2.151
334.35	2.129
334.56	2.176
334.77	2.120
334.97	2.102
335.18	2.046
335.39	2.015
335.60	2.028
335.80	1.997
336.01	1.970
336.22	1.962
336.43	1.950
336.64	1.979
336.84	1.940
337.05	1.954
337.26	1.929
337.47	1.968
337.67	1.990
337.88	1.954
338.09	1.958
338.30	1.970
338.50	2.023
338.71	2.033
338.92	2.009
339.13	2.031
339.33	2.057
339.54	2.041
339.75	2.034
339.96	2.017
340.16	2.042
340.37	2.066
340.58	1.980
340.79	1.980
340.99	1.960
341.20	1.958
341.41	1.900
341.62	1.872
341.82	1.903
342.03	1.876
342.24	1.844
342.44	1.865
342.65	1.843
342.86	1.895
343.07	1.844
343.27	1.906
343.48	1.910
343.69	1.933
343.90	1.965
344.10	1.936
344.31	1.963
344.52	1.997
344.72	2.004
344.93	1.994
345.14	2.004
345.35	2.009
345.55	1.960
345.76	1.944
345.97	1.946
346.18	1.912
346.38	1.939
346.59	1.886
346.80	1.904
347.00	1.868
347.21	1.904
347.42	1.920
347.62	1.930
347.83	1.901
348.04	1.900
348.25	1.867
348.45	1.899
348.66	1.898
348.87	1.933
349.07	1.877
349.28	1.870
349.49	1.834
349.70	1.862
349.90	1.851
350.11	1.887
350.32	1.863
350.52	1.903
350.73	1.906
350.94	1.909
351.14	1.951
351.35	1.993
351.56	1.991
351.76	2.009
351.97	1.987
352.18	1.985
352.39	1.985
352.59	2.020
352.80	2.006
353.01	2.004
353.21	1.984
353.42	1.966
353.63	1.917
353.83	1.933
354.04	1.910
354.25	1.885
354.45	1.882
354.66	1.871
354.87	1.833
355.07	1.869
355.28	1.832
355.49	1.840
355.69	1.820
355.90	1.863
356.11	1.885
356.31	1.924
356.52	1.916
356.73	1.938
356.93	1.973
357.14	1.996
357.35	1.982
357.55	2.043
357.76	2.023
357.97	1.995
358.17	1.995
358.38	1.953
358.59	1.948
358.79	1.944
359.00	1.934
359.21	1.908
359.41	1.884
359.62	1.859
359.83	1.789
360.03	1.772
360.24	1.840
360.44	1.822
360.65	1.819
360.86	1.808
361.06	1.792
361.27	1.789
361.48	1.783
361.68	1.835
361.89	1.854
362.10	1.866
362.30	1.907
362.51	1.856
362.72	1.867
362.92	1.901
363.13	1.876
363.33	1.900
363.54	1.926
363.75	1.930
363.95	1.906
364.16	1.875
364.37	1.906
364.57	1.909
364.78	1.924
364.98	1.901
365.19	1.867
365.40	1.916
365.60	1.914
365.81	1.897
366.02	1.879
366.22	1.852
366.43	1.865
366.63	1.831
366.84	1.817
367.05	1.818
367.25	1.800
367.46	1.765
367.66	1.747
367.87	1.751
368.08	1.755
368.28	1.761
368.49	1.762
368.69	1.740
368.90	1.761
369.11	1.751
369.31	1.736
369.52	1.795
369.72	1.834
369.93	1.828
370.14	1.830
370.34	1.812
370.55	1.812
370.75	1.823
370.96	1.851
371.17	1.848
371.37	1.832
371.58	1.838
371.78	1.779
371.99	1.796
372.20	1.794
372.40	1.790
372.61	1.792
372.81	1.797
373.02	1.795
373.23	1.763
373.43	1.788
373.64	1.815
373.84	1.790
374.05	1.851
374.25	1.822
374.46	1.791
374.67	1.804
374.87	1.855
375.08	1.842
375.28	1.819
375.49	1.831
375.69	1.810
375.90	1.804
376.11	1.828
376.31	1.779
376.52	1.798
376.72	1.822
376.93	1.793
377.13	1.764
377.34	1.779
377.55	1.837
377.75	1.851
377.96	1.826
378.16	1.811
378.37	1.842
378.57	1.884
378.78	1.859
378.98	1.830
379.19	1.842
379.40	1.793
379.60	1.772
379.81	1.729
380.01	1.705
380.22	1.704
380.42	1.709
380.63	1.684
380.83	1.657
381.04	1.641
381.24	1.667
381.45	1.654
381.66	1.704
381.86	1.720
382.07	1.729
382.27	1.755
382.48	1.778
382.68	1.770
382.89	1.771
383.09	1.777
383.30	1.806
383.50	1.805
383.71	1.801
383.91	1.794
384.12	1.786
384.32	1.779
384.53	1.776
384.73	1.763
384.94	1.769
385.15	1.777
385.35	1.787
385.56	1.784
385.76	1.761
385.97	1.773
386.17	1.765
386.38	1.766
386.58	1.782
386.79	1.813
386.99	1.825
387.20	1.833
387.40	1.809
387.61	1.801
387.81	1.800
388.02	1.825
388.22	1.823
388.43	1.818
388.63	1.814
388.84	1.815
389.04	1.791
389.25	1.800
389.45	1.799
389.66	1.812
389.86	1.803
390.07	1.808
390.27	1.794
390.48	1.793
390.68	1.801
390.89	1.821
391.09	1.841
391.30	1.843
391.50	1.839
391.71	1.824
391.91	1.817
392.12	1.838
392.32	1.840
392.53	1.866
392.73	1.883
392.94	1.881
393.14	1.869
393.35	1.845
393.55	1.841
393.75	1.830
393.96	1.832
394.16	1.832
394.37	1.831
394.57	1.830
394.78	1.825
394.98	1.811
395.19	1.797
395.39	1.794
395.60	1.791
395.80	1.787
396.01	1.795
396.21	1.803
396.42	1.808
396.62	1.789
396.83	1.784
397.03	1.789
397.23	1.789
397.44	1.780
397.64	1.788
397.85	1.795
398.05	1.805
398.26	1.794
398.46	1.799
398.67	1.806
398.87	1.806
399.08	1.809
399.28	1.798
399.48	1.781
399.69	1.776
399.89	1.783
400.10	1.801
400.30	1.787
400.51	1.782
400.71	1.780
400.92	1.775
401.12	1.782
401.32	1.775
401.53	1.763
401.73	1.769
401.94	1.807
402.14	1.787
402.35	1.772
402.55	1.775
402.75	1.776
402.96	1.781
403.16	1.778
403.37	1.776
403.57	1.806
403.78	1.820
403.98	1.842
404.18	1.832
404.39	1.829
404.59	1.826
404.80	1.816
405.00	1.821
405.21	1.828
405.41	1.820
405.61	1.819
405.82	1.809
406.02	1.804
406.23	1.807
406.43	1.823
406.63	1.842
406.84	1.854
407.04	1.874
407.25	1.885
407.45	1.877
407.65	1.892
407.86	1.894
408.06	1.854
408.27	1.851
408.47	1.852
408.67	1.819
408.88	1.784
409.08	1.777
409.29	1.764
409.49	1.753
409.69	1.751
409.90	1.761
410.10	1.768
410.31	1.784
410.51	1.797
410.71	1.770
410.92	1.767
411.12	1.780
411.33	1.800
411.53	1.816
411.73	1.814
411.94	1.828
412.14	1.799
412.34	1.798
412.55	1.812
412.75	1.815
412.96	1.827
413.16	1.851
413.36	1.859
413.57	1.830
413.77	1.802
413.97	1.821
414.18	1.818
414.38	1.824
414.59	1.841
414.79	1.831
414.99	1.830
415.20	1.829
415.40	1.831
415.60	1.817
415.81	1.823
416.01	1.859
416.21	1.855
416.42	1.858
416.62	1.873
416.83	1.857
417.03	1.867
417.23	1.849
417.44	1.843
417.64	1.838
417.84	1.840
418.05	1.843
418.25	1.830
418.45	1.824
418.66	1.822
418.86	1.797
419.06	1.803
419.27	1.796
419.47	1.806
419.67	1.808
419.88	1.802
420.08	1.809
420.28	1.800
420.49	1.807
420.69	1.794
420.89	1.779
421.10	1.799
421.30	1.794
421.50	1.794
421.71	1.791
421.91	1.802
422.11	1.813
422.32	1.812
422.52	1.818
422.72	1.817
422.93	1.837
423.13	1.856
423.33	1.859
423.54	1.860
423.74	1.858
423.94	1.855
424.15	1.847
424.35	1.850
424.55	1.846
424.76	1.852
424.96	1.848
425.16	1.841
425.36	1.838
425.57	1.821
425.77	1.819
425.97	1.830
426.18	1.839
426.38	1.830
426.58	1.817
426.79	1.824
426.99	1.811
427.19	1.825
427.39	1.837
427.60	1.835
427.80	1.864
428.00	1.889
428.21	1.885
428.41	1.891
428.61	1.897
428.82	1.910
429.02	1.916
429.22	1.935
429.42	1.908
429.63	1.905
429.83	1.900
430.03	1.894
430.24	1.868
430.44	1.892
430.64	1.886
430.84	1.901
431.05	1.902
431.25	1.888
431.45	1.884
431.65	1.888
431.86	1.896
432.06	1.890
432.26	1.884
432.47	1.898
432.67	1.869
432.87	1.877
433.07	1.866
433.28	1.868
433.48	1.877
433.68	1.869
433.88	1.881
434.09	1.882
434.29	1.891
434.49	1.900
434.69	1.889
434.90	1.895
435.10	1.880
435.30	1.897
435.51	1.901
435.71	1.898
435.91	1.912
436.11	1.906
436.32	1.892
436.52	1.900
436.72	1.905
436.92	1.904
437.13	1.927
437.33	1.944
437.53	1.934
437.73	1.920
437.93	1.916
438.14	1.907
438.34	1.908
438.54	1.918
438.74	1.908
438.95	1.898
439.15	1.906
439.35	1.900
439.55	1.898
439.76	1.897
439.96	1.911
440.16	1.926
440.36	1.924
440.56	1.926
440.77	1.918
440.97	1.921
441.17	1.926
441.37	1.928
441.58	1.931
441.78	1.946
441.98	1.959
442.18	1.961
442.38	1.953
442.59	1.965
442.79	1.964
442.99	1.984
443.19	1.988
443.40	1.995
443.60	2.001
443.80	1.996
444.00	1.985
444.20	1.966
444.41	1.958
444.61	1.955
444.81	1.963
445.01	1.963
445.21	1.953
445.42	1.955
445.62	1.947
445.82	1.936
446.02	1.938
446.22	1.926
446.43	1.930
446.63	1.928
446.83	1.944
447.03	1.937
447.23	1.947
447.44	1.949
447.64	1.952
447.84	1.951
448.04	1.962
448.24	1.963
448.44	1.975
448.65	1.984
448.85	1.980
449.05	1.986
449.25	1.982
449.45	1.982
449.65	1.993
449.86	1.997
450.06	2.017
450.26	2.018
450.46	2.019
450.66	2.025
450.87	2.026
451.07	2.032
451.27	2.019
451.47	2.026
451.67	2.019
451.87	2.022
452.08	2.022
452.28	2.001
452.48	2.001
452.68	2.008
452.88	2.009
453.08	2.010
453.28	2.021
453.49	2.022
453.69	2.024
453.89	2.029
454.09	2.030
454.29	2.032
454.49	2.053
454.70	2.057
454.90	2.049
455.10	2.049
455.30	2.040
455.50	2.054
455.70	2.055
455.90	2.052
456.11	2.034
456.31	2.016
456.51	2.019
456.71	2.020
456.91	2.027
457.11	2.023
457.31	2.031
457.51	2.045
457.72	2.026
457.92	2.021
458.12	2.026
458.32	2.042
458.52	2.054
458.72	2.045
458.92	2.037
459.12	2.030
459.33	2.027
459.53	2.031
459.73	2.039
459.93	2.045
460.13	2.052
460.33	2.051
460.53	2.049
460.73	2.047
460.93	2.056
461.14	2.067
461.34	2.076
461.54	2.088
461.74	2.092
461.94	2.089
462.14	2.093
462.34	2.092
462.54	2.106
462.74	2.101
462.95	2.101
463.15	2.093
463.35	2.089
463.55	2.101
463.75	2.100
463.95	2.094
464.15	2.098
464.35	2.100
464.55	2.103
464.75	2.099
464.95	2.118
465.16	2.118
465.36	2.125
465.56	2.128
465.76	2.128
465.96	2.127
466.16	2.131
466.36	2.128
466.56	2.113
466.76	2.118
466.96	2.122
467.16	2.122
467.36	2.126
467.57	2.125
467.77	2.127
467.97	2.116
468.17	2.126
468.37	2.119
468.57	2.131
468.77	2.145
468.97	2.141
469.17	2.140
469.37	2.145
469.57	2.149
469.77	2.168
469.97	2.174
470.17	2.184
470.37	2.184
470.57	2.193
470.78	2.174
470.98	2.196
471.18	2.207
471.38	2.210
471.58	2.216
471.78	2.222
471.98	2.220
472.18	2.221
472.38	2.217
472.58	2.224
472.78	2.238
472.98	2.248
473.18	2.235
473.38	2.232
473.58	2.237
473.78	2.228
473.98	2.221
474.18	2.234
474.38	2.227
474.58	2.244
474.78	2.253
474.98	2.249
475.18	2.266
475.38	2.264
475.58	2.268
475.79	2.265
475.99	2.265
476.19	2.280
476.39	2.263
476.59	2.265
476.79	2.262
476.99	2.247
477.19	2.240
477.39	2.221
477.59	2.218
477.79	2.219
477.99	2.217
478.19	2.217
478.39	2.221
478.59	2.223
478.79	2.225
478.99	2.232
479.19	2.239
479.39	2.254
479.59	2.277
479.79	2.288
479.99	2.300
480.19	2.304
480.39	2.308
480.59	2.308
480.79	2.313
480.99	2.320
481.19	2.315
481.39	2.321
481.59	2.320
481.79	2.322
481.99	2.325
482.19	2.322
482.39	2.337
482.59	2.340
482.79	2.336
482.99	2.338
483.19	2.361
483.39	2.397
483.59	2.426
483.79	2.427
483.99	2.418
484.19	2.412
484.39	2.412
484.58	2.407
484.78	2.409
484.98	2.414
485.18	2.422
485.38	2.419
485.58	2.392
485.78	2.361
485.98	2.358
486.18	2.365
486.38	2.381
486.58	2.385
486.78	2.396
486.98	2.407
487.18	2.412
487.38	2.412
487.58	2.409
487.78	2.415
487.98	2.421
488.18	2.421
488.38	2.422
488.58	2.417
488.78	2.418
488.98	2.421
489.18	2.422
489.37	2.425
489.57	2.426
489.77	2.435
489.97	2.439
490.17	2.442
490.37	2.449
490.57	2.454
490.77	2.462
490.97	2.465
491.17	2.467
491.37	2.471
491.57	2.477
491.77	2.478
491.97	2.481
492.17	2.481
492.37	2.488
492.56	2.489
492.76	2.489
492.96	2.492
493.16	2.504
493.36	2.508
493.56	2.512
493.76	2.511
493.96	2.518
494.16	2.526
494.36	2.529
494.56	2.526
494.76	2.535
494.95	2.554
495.15	2.560
495.35	2.555
495.55	2.564
495.75	2.564
495.95	2.573
496.15	2.584
496.35	2.589
496.55	2.598
496.75	2.610
496.95	2.612
497.14	2.612
497.34	2.621
497.54	2.626
497.74	2.633
497.94	2.643
498.14	2.645
498.34	2.643
498.54	2.641
498.74	2.642
498.93	2.642
499.13	2.647
499.33	2.658
499.53	2.666
499.73	2.674
499.93	2.677
500.13	2.676
500.33	2.682
500.53	2.686
500.72	2.698
500.92	2.709
501.12	2.719
501.32	2.726
501.52	2.719
501.72	2.716
501.92	2.714
502.12	2.708
502.31	2.722
502.51	2.731
502.71	2.742
502.91	2.739
503.11	2.737
503.31	2.744
503.51	2.746
503.70	2.755
503.90	2.755
504.10	2.772
504.30	2.785
504.50	2.787
504.70	2.794
504.90	2.798
505.09	2.806
505.29	2.813
505.49	2.807
505.69	2.821
505.89	2.827
506.09	2.834
506.29	2.831
506.48	2.836
506.68	2.840
506.88	2.848
507.08	2.842
507.28	2.853
507.48	2.859
507.67	2.873
507.87	2.872
508.07	2.879
508.27	2.889
508.47	2.896
508.67	2.901
508.86	2.899
509.06	2.894
509.26	2.899
509.46	2.907
509.66	2.908
509.85	2.911
510.05	2.917
510.25	2.921
510.45	2.925
510.65	2.928
510.85	2.930
511.04	2.939
511.24	2.954
511.44	2.967
511.64	2.964
511.84	2.974
512.03	2.986
512.23	2.985
512.43	2.983
512.63	2.988
512.83	3.004
513.02	3.018
513.22	3.028
513.42	3.032
513.62	3.039
513.82	3.050
514.01	3.066
514.21	3.056
514.41	3.072
514.61	3.082
514.81	3.085
515.00	3.074
515.20	3.071
515.40	3.084
515.60	3.080
515.80	3.086
515.99	3.083
516.19	3.068
516.39	3.086
516.59	3.088
516.78	3.100
516.98	3.109
517.18	3.113
517.38	3.114
517.58	3.113
517.77	3.124
517.97	3.123
518.17	3.133
518.37	3.152
518.56	3.156
518.76	3.166
518.96	3.165
519.16	3.167
519.36	3.181
519.55	3.193
519.75	3.197
519.95	3.206
520.15	3.216
520.34	3.227
520.54	3.231
520.74	3.236
520.94	3.237
521.13	3.254
521.33	3.268
521.53	3.269
521.73	3.269
521.92	3.275
522.12	3.283
522.32	3.287
522.52	3.288
522.71	3.301
522.91	3.309
523.11	3.310
523.31	3.311
523.50	3.300
523.70	3.313
523.90	3.320
524.09	3.327
524.29	3.330
524.49	3.346
524.69	3.358
524.88	3.347
525.08	3.354
525.28	3.358
525.48	3.366
525.67	3.377
525.87	3.376
526.07	3.379
526.26	3.380
526.46	3.390
526.66	3.395
526.86	3.396
527.05	3.412
527.25	3.419
527.45	3.431
527.64	3.429
527.84	3.436
528.04	3.447
528.24	3.462
528.43	3.467
528.63	3.473
528.83	3.475
529.02	3.477
529.22	3.481
529.42	3.482
529.62	3.481
529.81	3.486
530.01	3.490
530.21	3.487
530.40	3.483
530.60	3.486
530.80	3.485
530.99	3.488
531.19	3.493
531.39	3.496
531.58	3.500
531.78	3.520
531.98	3.529
532.18	3.539
532.37	3.553
532.57	3.564
532.77	3.576
532.96	3.576
533.16	3.584
533.36	3.595
533.55	3.601
533.75	3.607
533.95	3.608
534.14	3.612
534.34	3.622
534.54	3.628
534.73	3.640
534.93	3.649
535.13	3.667
535.32	3.665
535.52	3.669
535.72	3.676
535.91	3.686
536.11	3.688
536.31	3.702
536.50	3.699
536.70	3.708
536.90	3.707
537.09	3.708
537.29	3.708
537.48	3.719
537.68	3.724
537.88	3.729
538.07	3.732
538.27	3.743
538.47	3.752
538.66	3.766
538.86	3.776
539.06	3.778
539.25	3.789
539.45	3.796
539.65	3.818
539.84	3.831
540.04	3.842
540.23	3.859
540.43	3.859
540.63	3.860
540.82	3.869
541.02	3.870
541.22	3.882
541.41	3.885
541.61	3.890
541.80	3.889
542.00	3.888
542.20	3.895
542.39	3.896
542.59	3.896
542.79	3.898
542.98	3.898
543.18	3.904
543.37	3.910
543.57	3.915
543.77	3.930
543.96	3.925
544.16	3.935
544.35	3.936
544.55	3.944
544.75	3.953
544.94	3.969
545.14	3.981
545.33	3.990
545.53	3.997
545.73	4.000
545.92	3.998
546.12	4.017
546.31	4.019
546.51	4.021
546.71	4.025
546.90	4.038
547.10	4.044
547.29	4.049
547.49	4.054
547.69	4.060
547.88	4.066
548.08	4.066
548.27	4.072
548.47	4.080
548.66	4.097
548.86	4.098
549.06	4.104
549.25	4.106
549.45	4.125
549.64	4.130
549.84	4.142
550.03	4.162
550.23	4.194
550.43	4.205
550.62	4.216
550.82	4.221
551.01	4.235
551.21	4.245
551.40	4.262
551.60	4.267
551.80	4.271
551.99	4.265
552.19	4.273
552.38	4.260
552.58	4.257
552.77	4.264
552.97	4.274
553.16	4.279
553.36	4.281
553.56	4.289
553.75	4.281
553.95	4.287
554.14	4.291
554.34	4.293
554.53	4.306
554.73	4.315
554.92	4.319
555.12	4.316
555.31	4.324
555.51	4.347
555.70	4.351
555.90	4.360
556.10	4.367
556.29	4.385
556.49	4.385
556.68	4.387
556.88	4.402
557.07	4.406
557.27	4.429
557.46	4.427
557.66	4.428
557.85	4.427
558.05	4.433
558.24	4.442
558.44	4.459
558.63	4.463
558.83	4.459
559.02	4.465
559.22	4.470
559.41	4.471
559.61	4.468
559.80	4.476
560.00	4.486
560.19	4.495
560.39	4.500
560.58	4.488
560.78	4.506
560.97	4.514
561.17	4.521
561.36	4.524
561.56	4.535
561.75	4.560
561.95	4.561
562.14	4.558
562.34	4.570
562.53	4.585
562.73	4.596
562.92	4.593
563.12	4.610
563.31	4.599
563.51	4.606
563.70	4.604
563.90	4.621
564.09	4.618
564.29	4.626
564.48	4.627
564.68	4.633
564.87	4.642
565.07	4.644
565.26	4.648
565.45	4.661
565.65	4.665
565.84	4.678
566.04	4.661
566.23	4.666
566.43	4.687
566.62	4.694
566.82	4.690
567.01	4.688
567.21	4.692
567.40	4.692
567.60	4.704
567.79	4.709
567.98	4.721
568.18	4.741
568.37	4.754
568.57	4.743
568.76	4.756
568.96	4.764
569.15	4.781
569.35	4.798
569.54	4.804
569.73	4.800
569.93	4.807
570.12	4.805
570.32	4.807
570.51	4.809
570.71	4.820
570.90	4.812
571.09	4.823
571.29	4.841
571.48	4.846
571.68	4.862
571.87	4.871
572.07	4.877
572.26	4.885
572.45	4.893
572.65	4.906
572.84	4.909
573.04	4.916
573.23	4.929
573.43	4.929
573.62	4.940
573.81	4.954
574.01	4.969
574.20	4.967
574.40	4.962
574.59	4.977
574.78	4.964
574.98	4.986
575.17	5.003
575.37	5.004
575.56	5.001
575.75	5.002
575.95	5.008
576.14	5.008
576.34	5.014
576.53	5.020
576.72	5.015
576.92	5.043
577.11	5.047
577.31	5.053
577.50	5.053
577.69	5.059
577.89	5.060
578.08	5.055
578.28	5.061
578.47	5.074
578.66	5.083
578.86	5.091
579.05	5.090
579.24	5.082
579.44	5.088
579.63	5.093
579.83	5.095
580.02	5.098
580.21	5.117
580.41	5.130
580.60	5.149
580.79	5.155
580.99	5.164
581.18	5.179
581.38	5.191
581.57	5.199
581.76	5.213
581.96	5.231
582.15	5.246
582.34	5.236
582.54	5.242
582.73	5.248
582.92	5.249
583.12	5.249
583.31	5.244
583.50	5.236
583.70	5.242
583.89	5.251
584.08	5.256
584.28	5.274
584.47	5.274
584.66	5.278
584.86	5.266
585.05	5.275
585.24	5.288
585.44	5.302
585.63	5.335
585.82	5.336
586.02	5.333
586.21	5.342
586.40	5.339
586.60	5.372
586.79	5.369
586.98	5.379
587.18	5.389
587.37	5.396
587.56	5.400
587.76	5.390
587.95	5.399
588.14	5.411
588.34	5.406
588.53	5.410
588.72	5.417
588.92	5.427
589.11	5.443
589.30	5.453
589.50	5.465
589.69	5.474
589.88	5.486
590.07	5.496
590.27	5.503
590.46	5.513
590.65	5.519
590.85	5.521
591.04	5.525
591.23	5.527
591.43	5.531
591.62	5.532
591.81	5.533
592.00	5.526
592.20	5.527
592.39	5.535
592.58	5.556
592.78	5.559
592.97	5.566
593.16	5.590
593.35	5.599
593.55	5.591
593.74	5.595
593.93	5.610
594.13	5.632
594.32	5.643
594.51	5.647
594.70	5.645
594.90	5.652
595.09	5.634
595.28	5.630
595.47	5.640
595.67	5.665
595.86	5.666
596.05	5.664
596.24	5.665
596.44	5.671
596.63	5.677
596.82	5.668
597.02	5.673
597.21	5.696
597.40	5.713
597.59	5.713
597.79	5.704
597.98	5.714
598.17	5.713
598.36	5.715
598.56	5.724
598.75	5.726
598.94	5.749
599.13	5.766
599.32	5.783
599.52	5.767
599.71	5.783
599.90	5.792
600.09	5.805
600.29	5.813
600.48	5.826
600.67	5.830
600.86	5.840
601.06	5.848
601.25	5.845
601.44	5.830
601.63	5.860
601.82	5.863
602.02	5.896
602.21	5.896
602.40	5.909
602.59	5.917
602.79	5.921
602.98	5.926
603.17	5.920
603.36	5.939
603.55	5.942
603.75	5.932
603.94	5.933
604.13	5.922
604.32	5.930
604.51	5.923
604.71	5.924
604.90	5.930
605.09	5.939
605.28	5.947
605.47	5.943
605.67	5.965
605.86	5.977
606.05	5.986
606.24	6.004
606.43	6.008
606.63	6.031
606.82	6.027
607.01	6.029
607.20	6.034
607.39	6.039
607.59	6.033
607.78	6.028
607.97	6.036
608.16	6.040
608.35	6.035
608.54	6.045
608.74	6.043
608.93	6.077
609.12	6.078
609.31	6.076
609.50	6.089
609.69	6.116
609.89	6.132
610.08	6.138
610.27	6.147
610.46	6.162
610.65	6.176
610.84	6.184
611.04	6.171
611.23	6.185
611.42	6.191
611.61	6.191
611.80	6.195
611.99	6.184
612.19	6.178
612.38	6.180
612.57	6.173
612.76	6.174
612.95	6.185
613.14	6.197
613.33	6.207
613.53	6.222
613.72	6.242
613.91	6.223
614.10	6.252
614.29	6.266
614.48	6.275
614.67	6.299
614.86	6.304
615.06	6.302
615.25	6.310
615.44	6.319
615.63	6.320
615.82	6.318
616.01	6.337
616.20	6.319
616.39	6.328
616.59	6.334
616.78	6.324
616.97	6.345
617.16	6.351
617.35	6.357
617.54	6.354
617.73	6.373
617.92	6.391
618.12	6.400
618.31	6.412
618.50	6.433
618.69	6.439
618.88	6.458
619.07	6.450
619.26	6.462
619.45	6.482
619.64	6.481
619.83	6.484
620.03	6.479
620.22	6.493
620.41	6.510
620.60	6.491
620.79	6.501
620.98	6.488
621.17	6.487
621.36	6.507
621.55	6.524
621.74	6.553
621.93	6.568
622.12	6.578
622.32	6.578
622.51	6.575
622.70	6.584
622.89	6.586
623.08	6.601
623.27	6.635
623.46	6.619
623.65	6.597
623.84	6.601
624.03	6.611
624.22	6.615
624.41	6.640
624.60	6.653
624.79	6.663
624.99	6.668
625.18	6.684
625.37	6.664
625.56	6.688
625.75	6.710
625.94	6.717
626.13	6.717
626.32	6.720
626.51	6.718
626.70	6.725
626.89	6.723
627.08	6.733
627.27	6.737
627.46	6.741
627.65	6.739
627.84	6.738
628.03	6.735
628.22	6.728
628.41	6.742
628.60	6.736
628.79	6.746
628.98	6.751
629.17	6.746
629.37	6.755
629.56	6.770
629.75	6.768
629.94	6.780
630.13	6.791
630.32	6.811
630.51	6.805
630.70	6.820
630.89	6.805
631.08	6.826
631.27	6.837
631.46	6.864
631.65	6.870
631.84	6.894
632.03	6.894
632.22	6.903
632.41	6.906
632.60	6.921
632.79	6.922
632.98	6.943
633.17	6.980
633.36	7.000
633.55	6.983
633.74	6.990
633.93	6.991
634.12	7.006
634.31	7.011
634.50	7.028
634.69	7.040
634.88	7.055
635.07	7.059
635.26	7.039
635.45	7.027
635.64	7.015
635.83	7.026
636.02	7.045
636.21	7.070
636.40	7.073
636.59	7.061
636.78	7.057
636.96	7.059
637.15	7.066
637.34	7.075
637.53	7.093
637.72	7.118
637.91	7.127
638.10	7.130
638.29	7.129
638.48	7.148
638.67	7.138
638.86	7.146
639.05	7.163
639.24	7.171
639.43	7.169
639.62	7.179
639.81	7.176
640.00	7.185
640.19	7.179
640.38	7.175
640.57	7.166
640.76	7.184
640.95	7.181
641.14	7.175
641.32	7.207
641.51	7.220
641.70	7.221
641.89	7.249
642.08	7.267
642.27	7.281
642.46	7.283
642.65	7.275
642.84	7.305
643.03	7.325
643.22	7.344
643.41	7.340
643.60	7.362
643.79	7.390
643.98	7.394
644.16	7.386
644.35	7.385
644.54	7.384
644.73	7.394
644.92	7.403
645.11	7.387
645.30	7.381
645.49	7.385
645.68	7.364
645.87	7.361
646.06	7.362
646.24	7.356
646.43	7.358
646.62	7.377
646.81	7.401
647.00	7.388
647.19	7.420
647.38	7.424
647.57	7.402
647.76	7.423
647.95	7.436
648.13	7.442
648.32	7.457
648.51	7.468
648.70	7.461
648.89	7.474
649.08	7.494
649.27	7.505
649.46	7.530
649.65	7.539
649.83	7.536
650.02	7.525
650.21	7.532
650.40	7.535
650.59	7.542
650.78	7.573
650.97	7.579
651.16	7.585
651.34	7.579
651.53	7.572
651.72	7.599
651.91	7.578
652.10	7.590
652.29	7.604
652.48	7.608
652.66	7.624
652.85	7.622
653.04	7.626
653.23	7.626
653.42	7.650
653.61	7.654
653.80	7.661
653.98	7.687
654.17	7.692
654.36	7.693
654.55	7.706
654.74	7.710
654.93	7.724
655.11	7.735
655.30	7.734
655.49	7.747
655.68	7.756
655.87	7.766
656.06	7.776
656.24	7.788
656.43	7.779
656.62	7.783
656.81	7.787
657.00	7.791
657.19	7.797
657.37	7.828
657.56	7.805
657.75	7.788
657.94	7.804
658.13	7.840
658.31	7.869
658.50	7.886
658.69	7.892
658.88	7.893
659.07	7.906
659.26	7.898
659.44	7.891
659.63	7.922
659.82	7.969
660.01	7.974
660.20	7.971
660.38	7.978
660.57	8.005
660.76	8.024
660.95	8.056
661.14	8.067
661.32	8.086
661.51	8.091
661.70	8.112
661.89	8.110
662.08	8.113
662.26	8.114
662.45	8.088
662.64	8.075
662.83	8.079
663.01	8.065
663.20	8.053
663.39	8.066
663.58	8.075
663.77	8.052
663.95	8.051
664.14	8.056
664.33	8.082
664.52	8.099
664.70	8.110
664.89	8.120
665.08	8.124
665.27	8.146
665.45	8.139
665.64	8.141
665.83	8.144
666.02	8.152
666.20	8.133
666.39	8.141
666.58	8.175
666.77	8.154
666.95	8.144
667.14	8.163
667.33	8.161
667.52	8.159
667.70	8.176
667.89	8.189
668.08	8.201
668.27	8.228
668.45	8.219
668.64	8.211
668.83	8.239
669.02	8.248
669.20	8.242
669.39	8.257
669.58	8.271
669.77	8.286
669.95	8.289
670.14	8.291
670.33	8.293
670.51	8.309
670.70	8.335
670.89	8.335
671.08	8.367
671.26	8.401
671.45	8.390
671.64	8.400
671.82	8.391
672.01	8.414
672.20	8.414
672.39	8.419
672.57	8.438
672.76	8.413
672.95	8.423
673.13	8.399
673.32	8.415
673.51	8.432
673.70	8.449
673.88	8.465
674.07	8.449
674.26	8.471
674.44	8.492
674.63	8.468
674.82	8.487
675.00	8.507
675.19	8.513
675.38	8.483
675.56	8.502
675.75	8.504
675.94	8.503
676.12	8.504
676.31	8.517
676.50	8.514
676.69	8.556
676.87	8.573
677.06	8.553
677.25	8.572
677.43	8.594
677.62	8.593
677.81	8.620
677.99	8.641
678.18	8.657
678.37	8.655
678.55	8.654
678.74	8.632
678.93	8.624
679.11	8.638
679.30	8.652
679.48	8.658
679.67	8.657
679.86	8.657
680.04	8.661
680.23	8.679
680.42	8.685
680.60	8.715
680.79	8.735
680.98	8.741
681.16	8.751
681.35	8.764
681.54	8.752
681.72	8.763
681.91	8.756
682.10	8.778
682.28	8.768
682.47	8.760
682.65	8.763
682.84	8.773
683.03	8.797
683.21	8.799
683.40	8.791
683.59	8.815
683.77	8.800
683.96	8.827
684.14	8.796
684.33	8.796
684.52	8.852
684.70	8.846
684.89	8.839
685.07	8.814
685.26	8.837
685.45	8.852
685.63	8.843
685.82	8.900
686.00	8.900
686.19	8.933
686.38	8.977
686.56	8.950
686.75	8.977
686.93	8.972
687.12	8.989
687.31	9.006
687.49	9.012
687.68	9.041
687.86	9.032
688.05	9.022
688.24	9.035
688.42	9.033
688.61	9.034
688.79	9.030
688.98	9.042
689.17	9.039
689.35	9.047
689.54	9.058
689.72	9.028
689.91	9.020
690.09	9.043
690.28	9.051
690.47	9.058
690.65	9.077
690.84	9.078
691.02	9.116
691.21	9.131
691.39	9.131
691.58	9.145
691.76	9.195
691.95	9.214
692.14	9.236
692.32	9.235
692.51	9.269
692.69	9.297
692.88	9.314
693.06	9.301
693.25	9.350
693.43	9.351
693.62	9.352
693.81	9.354
693.99	9.377
694.18	9.340
694.36	9.344
694.55	9.347
694.73	9.325
694.92	9.324
695.10	9.305
695.29	9.298
695.47	9.304
695.66	9.315
695.84	9.329
696.03	9.346
696.21	9.386
696.40	9.382
696.59	9.392
696.77	9.393
696.96	9.400
697.14	9.444
697.33	9.454
697.51	9.497
697.70	9.517
697.88	9.519
698.07	9.494
698.25	9.486
698.44	9.503
698.62	9.484
698.81	9.487
698.99	9.513
699.18	9.527
699.36	9.532
699.55	9.527
699.73	9.524
699.92	9.528
700.10	9.545
700.29	9.550
700.47	9.573
700.66	9.589
700.84	9.611
701.03	9.606
701.21	9.590
701.40	9.571
701.58	9.591
701.77	9.591
701.95	9.627
702.13	9.631
702.32	9.651
702.50	9.650
702.69	9.635
702.87	9.629
703.06	9.659
703.24	9.671
703.43	9.698
703.61	9.699
703.80	9.717
703.98	9.658
704.17	9.646
704.35	9.646
704.54	9.661
704.72	9.699
704.90	9.706
705.09	9.708
705.27	9.746
705.46	9.778
705.64	9.740
705.83	9.745
706.01	9.799
706.20	9.864
706.38	9.872
706.56	9.880
706.75	9.897
706.93	9.893
707.12	9.893
707.30	9.921
707.49	9.945
707.67	10.016
707.86	10.019
708.04	10.022
708.22	9.985
708.41	10.028
708.59	10.010
708.78	10.010
708.96	10.030
709.14	10.066
709.33	10.055
709.51	10.038
709.70	10.017
709.88	10.034
710.07	10.054
710.25	10.113
710.43	10.094
710.62	10.122
710.80	10.111
710.99	10.144
711.17	10.126
711.35	10.117
711.54	10.111
711.72	10.104
711.91	10.125
712.09	10.118
712.27	10.071
712.46	10.086
712.64	10.095
712.83	10.113
713.01	10.122
713.19	10.148
713.38	10.154
713.56	10.170
713.75	10.193
713.93	10.189
714.11	10.179
714.30	10.199
714.48	10.209
714.66	10.227
714.85	10.242
715.03	10.253
715.22	10.213
715.40	10.218
715.58	10.223
715.77	10.242
715.95	10.267
716.13	10.290
716.32	10.286
716.50	10.286
716.68	10.281
716.87	10.284
717.05	10.251
717.24	10.303
717.42	10.311
717.60	10.321
717.79	10.324
717.97	10.325
718.15	10.329
718.34	10.374
718.52	10.419
718.70	10.401
718.89	10.399
719.07	10.391
719.25	10.389
719.44	10.408
719.62	10.427
719.80	10.449
719.99	10.444
720.17	10.450
720.35	10.462
720.54	10.406
720.72	10.451
720.90	10.461
721.09	10.506
721.27	10.506
721.45	10.503
721.64	10.492
721.82	10.467
722.00	10.478
722.19	10.486
722.37	10.466
722.55	10.516
722.74	10.523
722.92	10.560
723.10	10.552
723.28	10.560
723.47	10.573
723.65	10.632
723.83	10.652
724.02	10.653
724.20	10.690
724.38	10.689
724.57	10.686
724.75	10.705
724.93	10.689
725.11	10.700
725.30	10.747
725.48	10.796
725.66	10.750
725.85	10.779
726.03	10.772
726.21	10.804
726.39	10.805
726.58	10.827
726.76	10.826
726.94	10.864
727.13	10.881
727.31	10.865
727.49	10.861
727.67	10.892
727.86	10.904
728.04	10.945
728.22	10.915
728.40	10.951
728.59	10.947
728.77	10.959
728.95	10.970
729.13	10.991
729.32	10.982
729.50	10.962
729.68	10.989
729.86	10.998
730.05	11.019
730.23	11.039
730.41	11.036
730.59	11.025
730.78	11.050
730.96	11.059
731.14	11.089
731.32	11.097
731.51	11.102
731.69	11.096
731.87	11.110
732.05	11.077
732.24	11.084
732.42	11.119
732.60	11.125
732.78	11.111
732.97	11.087
733.15	11.085
733.33	11.111
733.51	11.144
733.69	11.118
733.88	11.061
734.06	11.096
734.24	11.098
734.42	11.102
734.60	11.118
734.79	11.132
734.97	11.166
735.15	11.183
735.33	11.156
735.52	11.164
735.70	11.193
735.88	11.222
736.06	11.216
736.24	11.216
736.43	11.233
736.61	11.280
736.79	11.290
736.97	11.262
737.15	11.262
737.34	11.297
737.52	11.292
737.70	11.319
737.88	11.392
738.06	11.386
738.24	11.461
738.43	11.440
738.61	11.436
738.79	11.439
738.97	11.501
739.15	11.471
739.33	11.466
739.52	11.472
739.70	11.456
739.88	11.417
740.06	11.420
740.24	11.354
740.42	11.374
740.61	11.368
740.79	11.382
740.97	11.325
741.15	11.371
741.33	11.431
741.51	11.445
741.70	11.477
741.88	11.531
742.06	11.578
742.24	11.625
742.42	11.614
742.60	11.607
742.78	11.591
742.97	11.621
743.15	11.620
743.33	11.623
743.51	11.647
743.69	11.675
743.87	11.688
744.05	11.696
744.24	11.716
744.42	11.775
744.60	11.828
744.78	11.899
744.96	11.944
745.14	11.998
745.32	11.990
745.50	12.025
745.69	12.003
745.87	11.963
746.05	11.973
746.23	11.976
746.41	11.919
746.59	11.890
746.77	11.865
746.95	11.876
747.13	11.832
747.32	11.800
747.50	11.802
747.68	11.834
747.86	11.881
748.04	11.878
748.22	11.892
748.40	11.987
748.58	12.028
748.76	12.021
748.94	12.087
749.13	12.114
749.31	12.149
749.49	12.121
749.67	12.174
749.85	12.190
750.03	12.199
750.21	12.150
750.39	12.155
750.57	12.164
750.75	12.194
750.93	12.160
751.11	12.186
751.30	12.208
751.48	12.271
751.66	12.196
751.84	12.183
752.02	12.253
752.20	12.317
752.38	12.304
752.56	12.299
752.74	12.256
752.92	12.242
753.10	12.285
753.28	12.289
753.46	12.268
753.64	12.293
753.82	12.341
754.00	12.266
754.18	12.264
754.37	12.214
754.55	12.280
754.73	12.325
754.91	12.347
755.09	12.288
755.27	12.349
755.45	12.330
755.63	12.377
755.81	12.341
755.99	12.384
756.17	12.421
756.35	12.475
756.53	12.445
756.71	12.460
756.89	12.462
757.07	12.441
757.25	12.382
757.43	12.410
757.61	12.371
757.79	12.353
757.97	12.333
758.15	12.377
758.33	12.420
758.51	12.456
758.69	12.487
758.87	12.478
759.05	12.516
759.23	12.550
759.41	12.592
759.59	12.645
759.77	12.677
759.95	12.712
760.13	12.660
760.31	12.659
760.49	12.640
760.67	12.687
760.85	12.714
761.03	12.727
761.21	12.728
761.39	12.748
761.57	12.776
761.75	12.806
761.93	12.802
762.11	12.823
762.29	12.815
762.47	12.878
762.65	12.854
762.83	12.844
763.01	12.869
763.19	12.886
763.37	12.891
763.55	12.879
763.73	12.913
763.91	12.935
764.09	12.936
764.27	12.929
764.45	12.894
764.63	12.901
764.81	12.913
764.99	12.924
765.16	12.925
765.34	12.925
765.52	12.929
765.70	12.913
765.88	12.920
766.06	12.911
766.24	12.925
766.42	12.917
766.60	12.915
766.78	12.915
766.96	12.943
767.14	12.960
767.32	12.966
767.50	12.920
767.68	12.912
767.86	12.925
768.03	12.991
768.21	13.004
768.39	13.027
768.57	13.068
768.75	13.107
768.93	13.111
769.11	13.162
769.29	13.194
769.47	13.261
769.65	13.261
769.83	13.271
770.01	13.317
770.19	13.365
770.36	13.415
770.54	13.425
770.72	13.427
770.90	13.433
771.08	13.431
771.26	13.416
771.44	13.426
771.62	13.491
771.80	13.498
771.98	13.457
772.15	13.467
772.33	13.441
772.51	13.418
772.69	13.408
772.87	13.423
773.05	13.368
773.23	13.368
773.41	13.369
773.58	13.406
773.76	13.467
773.94	13.394
774.12	13.344
774.30	13.438
774.48	13.488
774.66	13.458
774.84	13.436
775.01	13.483
775.19	13.520
775.37	13.539
775.55	13.509
775.73	13.415
775.91	13.491
776.09	13.528
776.26	13.446
776.44	13.429
776.62	13.547
776.80	13.498
776.98	13.485
777.16	13.476
777.34	13.595
777.51	13.581
777.69	13.675
777.87	13.667
778.05	13.659
778.23	13.708
778.41	13.700
778.58	13.624
778.76	13.702
778.94	13.781
779.12	13.880
779.30	13.825
779.48	13.851
779.65	13.836
779.83	13.816
780.01	13.885
780.19	13.921
780.37	13.956
780.55	13.994
780.72	14.007
780.90	13.941
781.08	13.851
781.26	13.931
781.44	13.936
781.61	13.918
781.79	13.961
781.97	13.996
782.15	13.944
782.33	13.906
782.50	13.873
782.68	13.901
782.86	13.862
783.04	13.843
783.22	13.785
783.39	13.788
783.57	13.827
783.75	13.865
783.93	13.906
784.11	13.942
784.28	13.842
784.46	13.898
784.64	13.871
784.82	14.036
784.99	14.073
785.17	13.993
785.35	14.118
785.53	14.116
785.71	14.071
785.88	13.975
786.06	14.069
786.24	14.242
786.42	14.331
786.59	14.341
786.77	14.277
786.95	14.339
787.13	14.413
787.30	14.401
787.48	14.414
787.66	14.476
787.84	14.547
788.01	14.494
788.19	14.489
788.37	14.467
788.55	14.445
788.72	14.476
788.90	14.431
789.08	14.508
789.26	14.441
789.43	14.482
789.61	14.482
789.79	14.462
789.97	14.468
790.14	14.509
790.32	14.543
790.50	14.599
790.68	14.603
790.85	14.641
791.03	14.603
791.21	14.627
791.38	14.537
791.56	14.547
791.74	14.646
791.92	14.675
792.09	14.647
792.27	14.707
792.45	14.721
792.62	14.701
792.80	14.768
792.98	14.717
793.16	14.734
793.33	14.876
793.51	14.814
793.69	14.741
793.86	14.681
794.04	14.659
794.22	14.574
794.39	14.707
794.57	14.760
794.75	14.754
794.93	14.825
795.10	14.814
795.28	14.792
795.46	14.915
795.63	14.938
795.81	15.049
795.99	15.049
796.16	15.048
796.34	14.962
796.52	14.852
796.69	14.872
796.87	14.948
797.05	15.058
797.22	15.014
797.40	15.071
797.58	15.056
797.75	15.011
797.93	15.136
798.11	15.181
798.28	15.219
798.46	15.341
798.64	15.295
798.81	15.220
798.99	15.124
799.17	15.208
799.34	15.129
799.52	15.146
799.70	15.189
799.87	15.177
800.05	15.094
800.22	15.031
800.40	14.967
800.58	14.923
800.75	14.979
800.93	15.039
801.11	15.026
801.28	15.140
801.46	15.133
801.63	15.191
801.81	15.170
801.99	15.269
802.16	15.290
802.34	15.368
802.52	15.441
802.69	15.404
802.87	15.373
803.04	15.383
803.22	15.376
803.40	15.419
803.57	15.412
803.75	15.380
803.93	15.306
804.10	15.321
804.28	15.391
804.45	15.457
804.63	15.519
804.81	15.590
804.98	15.614
805.16	15.580
805.33	15.705
805.51	15.724
805.68	15.766
805.86	15.895
806.04	15.906
806.21	15.916
806.39	15.850
806.56	15.786
806.74	15.789
806.92	15.836
807.09	15.819
807.27	15.683
807.44	15.678
807.62	15.717
807.79	15.758
807.97	15.735
808.15	15.648
808.32	15.687
808.50	15.735
808.67	15.702
808.85	15.725
809.02	15.690
809.20	15.764
809.38	15.724
809.55	15.663
809.73	15.613
809.90	15.663
810.08	15.687
810.25	15.757
810.43	15.819
810.60	15.936
810.78	15.918
810.95	15.999
811.13	16.006
811.31	15.946
811.48	16.096
811.66	15.985
811.83	16.022
812.01	16.067
812.18	15.986
812.36	15.877
812.53	15.783
812.71	15.745
812.88	15.758
813.06	15.693
813.23	15.647
813.41	15.720
813.58	15.818
813.76	15.915
813.93	15.910
814.11	15.893
814.28	15.996
814.46	16.118
814.63	16.244
814.81	16.198
814.98	16.299
815.16	16.486
815.33	16.299
815.51	16.426
815.68	16.242
815.86	16.239
816.03	16.205
816.21	16.209
816.38	16.085
816.56	15.989
816.73	16.144
816.91	16.105
817.08	16.143
817.26	16.184
817.43	16.124
817.61	16.314
817.78	16.305
817.96	16.387
818.13	16.458
818.31	16.548
818.48	16.600
818.66	16.632
818.83	16.592
819.01	16.484
819.18	16.494
819.36	16.521
819.53	16.402
819.70	16.428
819.88	16.620
820.05	16.667
820.23	16.700
820.40	16.737
820.58	16.735
820.75	16.822
820.93	16.825
821.10	16.925
821.28	17.016
821.45	17.042
821.62	17.130
821.80	17.074
821.97	17.084
822.15	17.149
822.32	17.235
822.50	17.339
822.67	17.521
822.84	17.563
823.02	17.458
823.19	17.289
823.37	17.149
823.54	17.032
823.72	16.909
823.89	16.802
824.06	16.748
824.24	16.697
824.41	16.634
824.59	16.561
824.76	16.501
824.94	16.459
825.11	16.442
825.28	16.436
825.46	16.424
825.63	16.478
825.81	16.542
825.98	16.568
826.15	16.604
826.33	16.679
826.50	16.705
826.68	16.773
826.85	16.776
827.02	16.803
827.20	16.900
827.37	17.008
827.54	17.114
827.72	17.208
827.89	17.294
828.07	17.372
828.24	17.329
828.41	17.326
828.59	17.254
828.76	17.246
828.94	17.231
829.11	17.169
829.28	17.139
829.46	17.068
829.63	17.039
829.80	16.988
829.98	16.895
830.15	16.892
830.32	16.885
830.50	16.941
830.67	16.983
830.85	17.033
831.02	17.106
831.19	17.121
831.37	17.209
831.54	17.220
831.71	17.306
831.89	17.454
832.06	17.544
832.23	17.612
832.41	17.661
832.58	17.702
832.75	17.679
832.93	17.769
833.10	17.769
833.27	17.834
833.45	17.977
833.62	18.019
833.79	18.052
833.97	18.131
834.14	18.177
834.31	18.200
834.49	18.304
834.66	18.270
834.83	18.260
835.01	18.172
835.18	18.048
835.35	17.928
835.52	17.854
835.70	17.793
835.87	17.728
836.04	17.652
836.22	17.569
836.39	17.483
836.56	17.429
836.74	17.354
836.91	17.384
837.08	17.401
837.25	17.482
837.43	17.490
837.60	17.524
837.77	17.489
837.95	17.587
838.12	17.738
838.29	17.792
838.46	17.869
838.64	17.872
838.81	17.827
838.98	17.901
839.16	17.924
839.33	17.961
839.50	17.895
839.67	18.054
839.85	18.094
840.02	18.065
840.19	17.891
840.36	17.971
840.54	18.111
840.71	18.182
840.88	18.213
841.06	18.192
841.23	18.273
841.40	18.362
841.57	18.276
841.75	18.235
841.92	18.081
842.09	18.072
842.26	18.033
842.44	17.913
842.61	17.919
842.78	17.923
842.95	17.993
843.12	17.831
843.30	17.753
843.47	17.741
843.64	17.712
843.81	17.935
843.99	18.107
844.16	18.270
844.33	18.338
844.50	18.483
844.68	18.638
844.85	18.412
845.02	18.767
845.19	18.979
845.36	18.940
845.54	19.049
845.71	19.113
845.88	19.225
846.05	19.023
846.22	19.216
846.40	19.150
846.57	18.939
846.74	19.070
846.91	18.883
847.08	18.786
847.26	19.097
847.43	19.100
847.60	19.078
847.77	18.890
847.94	18.885
848.12	18.929
848.29	19.151
848.46	19.046
848.63	18.890
848.80	18.943
848.98	18.864
849.15	18.964
849.32	18.874
849.49	18.802
849.66	19.078
849.83	19.247
850.01	19.421
850.18	18.954
850.35	19.038
850.52	19.347
850.69	19.416
850.86	19.400
851.04	19.100
851.21	19.030
851.38	18.940
851.55	18.467
851.72	17.994
851.89	17.906
852.06	18.312
852.24	18.317
852.41	18.300
852.58	18.239
852.75	18.642
852.92	18.784
853.09	19.106
853.26	18.907
853.44	19.328
853.61	19.712
853.78	19.299
853.95	19.241
854.12	19.174
854.29	19.230
854.46	19.629
854.64	19.409
854.81	19.544
854.98	19.416
855.15	19.763
855.32	19.770
855.49	19.970
855.66	20.090
855.83	20.035
856.00	20.047
856.18	20.227
856.35	19.836
856.52	19.857
856.69	19.773
856.86	19.677
857.03	19.528
857.20	19.757
857.37	19.779
857.54	19.779
857.71	19.878
857.89	20.256
858.06	19.922
858.23	20.021
858.40	20.040
858.57	20.204
858.74	20.262
858.91	20.380
859.08	20.050
859.25	19.902
859.42	20.028
859.59	20.056
859.76	19.802
859.94	20.322
860.11	20.506
860.28	20.452
860.45	20.405
860.62	20.348
860.79	20.321
860.96	20.288
861.13	20.140
861.30	20.178
861.47	19.958
861.64	19.969
861.81	19.641
861.98	19.612
862.15	19.510
862.32	19.389
862.49	19.312
862.66	19.167
862.83	19.101
863.01	19.466
863.18	19.382
863.35	19.477
863.52	19.850
863.69	19.580
863.86	19.506
864.03	19.756
864.20	19.879
864.37	19.796
864.54	20.010
864.71	20.455
864.88	20.425
865.05	20.520
865.22	20.595
865.39	20.358
865.56	20.511
865.73	20.680
865.90	20.815
866.07	20.918
866.24	21.212
866.41	21.130
866.58	20.868
866.75	20.792
866.92	20.626
867.09	20.799
867.26	21.151
867.43	21.066
867.60	20.913
867.77	20.513
867.94	20.118
868.11	20.191
868.28	20.497
868.45	20.448
868.62	20.490
868.79	20.815
868.96	20.860
869.13	20.511
869.30	20.660
869.47	20.652
869.64	20.967
869.81	21.290
869.98	21.328
870.15	21.463
870.32	21.553
870.49	20.975
870.66	21.180
870.83	20.903
871.00	20.960
871.16	20.831
871.33	20.827
871.50	20.639
871.67	20.768
871.84	20.474
872.01	20.385
872.18	20.497
872.35	21.152
872.52	21.022
872.69	20.897
872.86	20.937
873.03	21.259
873.20	21.224
873.37	21.210
873.54	21.158
873.71	21.330
873.88	21.211
874.05	21.337
874.21	21.222
874.38	20.802
874.55	20.947
874.72	20.875
874.89	20.538
875.06	20.740
875.23	21.130
875.40	21.108
875.57	21.225
875.74	21.167
875.91	20.834
876.08	20.961
876.24	21.102
876.41	21.233
876.58	21.374
876.75	21.660
876.92	21.419
877.09	21.179
877.26	21.282
877.43	20.999
877.60	21.119
877.77	21.233
877.93	21.306
878.10	21.368
878.27	21.282
878.44	21.076
878.61	20.906
878.78	21.010
878.95	20.915
879.12	20.879
879.28	20.978
879.45	20.919
879.62	20.876
879.79	20.405
879.96	20.691
880.13	20.621
880.30	20.843
880.47	21.051
880.63	21.189
880.80	21.384
880.97	21.558
881.14	21.647
881.31	21.720
881.48	21.750
881.65	22.061
881.81	22.126
881.98	22.349
882.15	22.375
882.32	22.390
882.49	22.376
882.66	22.309
882.82	22.133
882.99	22.003
883.16	21.880
883.33	21.794
883.50	21.695
883.67	21.605
883.83	21.529
884.00	21.438
884.17	21.355
884.34	21.274
884.51	21.200
884.68	21.145
884.84	21.128
885.01	21.116
885.18	21.121
885.35	21.107
885.52	21.098
885.68	21.071
885.85	21.112
886.02	21.310
886.19	20.693
886.36	20.879
886.53	21.240
886.69	21.603
>>>>>End Spectral Data<<<<<
