OOIBase32 Version 2.0.6.5 Data File
++++++++++++++++++++++++++++++++++++
Date: 03-24-2011, 10:56:23
User: Valued Ocean Optics Customer
Spectrometer Serial Number: USB4C01507
Spectrometer Channel: Master
Integration Time (msec): 46
Spectra Averaged: 30
Boxcar Smoothing: 5
Correct for Electrical Dark: Enabled
Time Normalized: Disabled
Dual-beam Reference: Disabled
Reference Channel: Master
Temperature: Not acquired
Spectrometer Type: S4000
ADC Type: USB4000
Number of Pixels in File: 3648
Graph Title: 
>>>>>Begin Spectral Data<<<<<
179.17	1290.326
179.39	3269.780
179.60	-77.915
179.82	-54.660
180.03	115.970
180.24	383.223
180.46	46.270
180.67	-218.523
180.89	64.737
181.10	-72.638
181.31	139.577
181.53	-64.158
181.74	34.174
181.96	307.949
182.17	92.351
182.39	24.058
182.60	-13.036
182.81	89.952
183.03	169.073
183.24	-276.763
183.46	15.825
183.67	28.962
183.88	30.848
184.10	33.769
184.31	33.503
184.53	33.020
184.74	24.173
184.96	31.861
185.17	27.694
185.38	31.031
185.60	32.453
185.81	33.654
186.03	25.286
186.24	28.041
186.45	28.259
186.67	21.286
186.88	22.717
187.10	20.663
187.31	11.350
187.52	14.434
187.74	17.729
187.95	11.966
188.17	10.522
188.38	17.339
188.59	14.627
188.81	8.919
189.02	16.361
189.24	20.400
189.45	32.188
189.66	34.488
189.88	20.606
190.09	17.669
190.30	25.070
190.52	25.412
190.73	16.286
190.95	21.018
191.16	26.460
191.37	25.207
191.59	20.510
191.80	15.193
192.02	19.835
192.23	29.632
192.44	15.838
192.66	15.906
192.87	15.373
193.08	19.933
193.30	13.114
193.51	16.809
193.73	20.120
193.94	23.410
194.15	23.095
194.37	23.410
194.58	27.771
194.79	32.959
195.01	29.088
195.22	27.225
195.44	28.110
195.65	27.749
195.86	22.898
196.08	17.074
196.29	18.441
196.50	16.766
196.72	12.436
196.93	10.165
197.14	14.133
197.36	18.442
197.57	14.003
197.79	13.615
198.00	11.150
198.21	13.059
198.43	17.875
198.64	15.058
198.85	11.190
199.07	10.337
199.28	9.859
199.49	3.879
199.71	0.614
199.92	7.848
200.13	11.353
200.35	18.627
200.56	12.566
200.78	9.004
200.99	6.022
201.20	14.647
201.42	22.573
201.63	18.758
201.84	15.456
202.06	15.543
202.27	12.436
202.48	10.988
202.70	6.007
202.91	11.421
203.12	7.259
203.34	11.894
203.55	10.289
203.76	5.351
203.98	11.253
204.19	15.156
204.40	15.672
204.62	17.356
204.83	11.338
205.04	9.482
205.26	8.170
205.47	10.364
205.68	9.503
205.90	4.665
206.11	6.312
206.32	1.249
206.54	-3.779
206.75	-2.561
206.96	-3.918
207.18	-0.717
207.39	5.989
207.60	9.103
207.82	13.388
208.03	15.227
208.24	18.001
208.45	17.271
208.67	17.038
208.88	19.031
209.09	16.705
209.31	11.860
209.52	9.902
209.73	11.983
209.95	9.776
210.16	10.302
210.37	8.924
210.59	12.883
210.80	14.861
211.01	16.885
211.23	18.388
211.44	20.085
211.65	23.816
211.86	23.992
212.08	20.536
212.29	18.528
212.50	16.957
212.72	13.792
212.93	9.601
213.14	9.259
213.36	9.449
213.57	9.615
213.78	11.091
213.99	13.119
214.21	18.896
214.42	20.479
214.63	20.636
214.85	16.983
215.06	19.120
215.27	21.792
215.49	19.874
215.70	20.366
215.91	20.233
216.12	15.459
216.34	15.845
216.55	13.648
216.76	14.640
216.98	12.908
217.19	14.551
217.40	17.369
217.61	17.845
217.83	20.647
218.04	19.253
218.25	17.728
218.47	19.164
218.68	17.616
218.89	16.275
219.10	13.826
219.32	12.664
219.53	13.068
219.74	12.306
219.95	10.177
220.17	8.192
220.38	8.530
220.59	8.698
220.81	8.824
221.02	10.747
221.23	10.842
221.44	10.858
221.66	13.197
221.87	12.310
222.08	12.042
222.29	12.701
222.51	13.764
222.72	13.562
222.93	14.357
223.14	14.415
223.36	12.597
223.57	12.573
223.78	12.079
223.99	11.456
224.21	12.140
224.42	11.003
224.63	10.538
224.84	9.057
225.06	9.204
225.27	9.436
225.48	9.047
225.69	9.788
225.91	10.440
226.12	10.615
226.33	11.435
226.54	11.038
226.76	11.345
226.97	11.425
227.18	11.563
227.39	11.412
227.61	11.387
227.82	11.455
228.03	11.306
228.24	11.178
228.46	11.259
228.67	11.207
228.88	11.333
229.09	11.196
229.31	11.156
229.52	11.070
229.73	11.087
229.94	10.936
230.16	10.891
230.37	10.909
230.58	10.663
230.79	10.704
231.00	10.602
231.22	10.379
231.43	10.617
231.64	10.470
231.85	10.659
232.07	10.608
232.28	10.952
232.49	11.004
232.70	11.013
232.91	11.159
233.13	10.742
233.34	10.218
233.55	10.599
233.76	10.510
233.98	10.815
234.19	10.706
234.40	10.583
234.61	10.373
234.82	10.449
235.04	10.146
235.25	10.381
235.46	10.526
235.67	10.809
235.88	10.564
236.10	10.711
236.31	10.353
236.52	10.604
236.73	11.116
236.94	11.143
237.16	10.381
237.37	10.908
237.58	10.620
237.79	10.556
238.01	10.130
238.22	9.914
238.43	9.938
238.64	9.949
238.85	9.563
239.06	9.120
239.28	8.807
239.49	9.184
239.70	8.903
239.91	8.879
240.12	8.906
240.34	9.100
240.55	9.136
240.76	9.089
240.97	9.010
241.18	9.124
241.40	9.165
241.61	9.256
241.82	9.230
242.03	9.331
242.24	9.238
242.45	9.150
242.67	9.100
242.88	9.091
243.09	9.053
243.30	9.054
243.51	9.008
243.73	8.942
243.94	8.794
244.15	8.690
244.36	8.416
244.57	8.686
244.78	8.601
245.00	8.595
245.21	8.518
245.42	8.436
245.63	8.415
245.84	8.435
246.05	8.433
246.27	8.447
246.48	8.457
246.69	8.471
246.90	8.458
247.11	8.399
247.32	8.403
247.54	8.419
247.75	8.412
247.96	8.372
248.17	8.409
248.38	8.425
248.59	8.410
248.81	8.362
249.02	8.299
249.23	8.213
249.44	8.286
249.65	8.287
249.86	8.015
250.07	8.068
250.29	8.133
250.50	7.601
250.71	7.528
250.92	7.491
251.13	7.495
251.34	7.583
251.55	7.476
251.77	7.564
251.98	7.539
252.19	7.619
252.40	7.544
252.61	7.532
252.82	7.677
253.03	7.788
253.25	7.724
253.46	7.452
253.67	7.488
253.88	7.609
254.09	7.411
254.30	7.195
254.51	7.327
254.73	7.310
254.94	7.371
255.15	7.466
255.36	7.097
255.57	7.132
255.78	7.419
255.99	7.160
256.20	7.440
256.42	7.635
256.63	7.676
256.84	7.634
257.05	7.619
257.26	7.488
257.47	7.309
257.68	7.326
257.89	7.309
258.10	7.271
258.32	7.299
258.53	7.037
258.74	7.010
258.95	7.062
259.16	7.052
259.37	7.042
259.58	7.026
259.79	7.119
260.00	7.110
260.22	7.104
260.43	7.180
260.64	7.117
260.85	7.214
261.06	7.225
261.27	7.188
261.48	7.221
261.69	7.195
261.90	7.247
262.12	7.129
262.33	7.326
262.54	7.260
262.75	7.033
262.96	7.161
263.17	7.255
263.38	7.333
263.59	7.488
263.80	7.336
264.01	7.391
264.22	7.329
264.44	7.369
264.65	7.047
264.86	7.167
265.07	7.117
265.28	7.027
265.49	6.897
265.70	6.904
265.91	6.680
266.12	6.740
266.33	6.739
266.54	6.825
266.75	6.775
266.97	6.913
267.18	6.877
267.39	6.873
267.60	6.859
267.81	6.813
268.02	6.664
268.23	6.822
268.44	6.807
268.65	6.810
268.86	6.769
269.07	6.844
269.28	6.731
269.49	6.768
269.70	6.685
269.92	6.594
270.13	6.595
270.34	6.683
270.55	6.599
270.76	6.580
270.97	6.694
271.18	6.668
271.39	6.563
271.60	6.597
271.81	6.538
272.02	6.622
272.23	6.699
272.44	6.629
272.65	6.638
272.86	6.591
273.07	6.551
273.28	6.454
273.49	6.425
273.71	6.402
273.92	6.422
274.13	6.371
274.34	6.394
274.55	6.338
274.76	6.398
274.97	6.358
275.18	6.356
275.39	6.476
275.60	6.492
275.81	6.590
276.02	6.567
276.23	6.535
276.44	6.542
276.65	6.564
276.86	6.640
277.07	6.546
277.28	6.537
277.49	6.585
277.70	6.444
277.91	6.483
278.12	6.337
278.33	6.291
278.54	6.281
278.75	6.258
278.96	6.182
279.17	6.123
279.39	6.238
279.60	6.243
279.81	6.204
280.02	6.214
280.23	6.109
280.44	6.072
280.65	6.111
280.86	6.117
281.07	6.079
281.28	6.088
281.49	6.050
281.70	6.070
281.91	5.975
282.12	6.042
282.33	6.136
282.54	6.147
282.75	6.291
282.96	6.319
283.17	6.352
283.38	6.378
283.59	6.346
283.80	6.286
284.01	6.150
284.22	6.235
284.43	6.127
284.64	6.036
284.85	6.052
285.06	5.999
285.27	5.972
285.48	5.924
285.69	5.931
285.90	6.021
286.11	6.118
286.32	6.138
286.53	6.052
286.74	6.077
286.95	6.064
287.16	6.017
287.37	5.945
287.58	5.873
287.79	5.842
288.00	5.827
288.21	5.718
288.42	5.549
288.63	5.637
288.84	5.648
289.05	5.651
289.26	5.698
289.47	5.665
289.68	5.648
289.89	5.708
290.10	5.644
290.31	5.580
290.51	5.512
290.72	5.584
290.93	5.529
291.14	5.573
291.35	5.506
291.56	5.386
291.77	5.345
291.98	5.347
292.19	5.312
292.40	5.329
292.61	5.343
292.82	5.412
293.03	5.455
293.24	5.422
293.45	5.374
293.66	5.476
293.87	5.590
294.08	5.574
294.29	5.654
294.50	5.613
294.71	5.639
294.92	5.674
295.13	5.653
295.34	5.600
295.55	5.628
295.76	5.534
295.96	5.526
296.17	5.568
296.38	5.627
296.59	5.581
296.80	5.561
297.01	5.588
297.22	5.621
297.43	5.582
297.64	5.588
297.85	5.562
298.06	5.614
298.27	5.617
298.48	5.504
298.69	5.428
298.90	5.379
299.11	5.405
299.32	5.364
299.53	5.280
299.73	5.289
299.94	5.356
300.15	5.375
300.36	5.364
300.57	5.261
300.78	5.296
300.99	5.330
301.20	5.334
301.41	5.322
301.62	5.332
301.83	5.326
302.04	5.267
302.25	5.186
302.45	5.126
302.66	5.134
302.87	5.147
303.08	5.122
303.29	5.082
303.50	5.144
303.71	5.217
303.92	5.224
304.13	5.292
304.34	5.359
304.55	5.349
304.76	5.379
304.96	5.382
305.17	5.400
305.38	5.379
305.59	5.439
305.80	5.423
306.01	5.399
306.22	5.345
306.43	5.248
306.64	5.236
306.85	5.162
307.06	5.177
307.26	5.091
307.47	5.027
307.68	5.078
307.89	5.047
308.10	4.986
308.31	4.967
308.52	5.018
308.73	5.065
308.94	5.036
309.14	5.105
309.35	5.107
309.56	5.180
309.77	5.184
309.98	5.208
310.19	5.230
310.40	5.211
310.61	5.156
310.82	5.089
311.02	5.034
311.23	4.988
311.44	4.941
311.65	4.864
311.86	4.866
312.07	4.876
312.28	4.821
312.49	4.747
312.69	4.775
312.90	4.782
313.11	4.775
313.32	4.817
313.53	4.832
313.74	4.809
313.95	4.836
314.16	4.776
314.36	4.796
314.57	4.800
314.78	4.860
314.99	4.882
315.20	4.863
315.41	4.866
315.62	4.777
315.82	4.811
316.03	4.852
316.24	4.898
316.45	4.938
316.66	4.881
316.87	4.935
317.08	4.925
317.28	4.891
317.49	4.831
317.70	4.862
317.91	4.915
318.12	4.915
318.33	4.894
318.54	4.903
318.74	4.835
318.95	4.871
319.16	4.776
319.37	4.733
319.58	4.742
319.79	4.779
319.99	4.695
320.20	4.678
320.41	4.688
320.62	4.666
320.83	4.625
321.04	4.599
321.24	4.576
321.45	4.639
321.66	4.657
321.87	4.626
322.08	4.686
322.29	4.683
322.49	4.664
322.70	4.626
322.91	4.682
323.12	4.680
323.33	4.722
323.54	4.705
323.74	4.692
323.95	4.668
324.16	4.709
324.37	4.649
324.58	4.675
324.79	4.654
324.99	4.622
325.20	4.596
325.41	4.590
325.62	4.619
325.83	4.620
326.03	4.537
326.24	4.527
326.45	4.501
326.66	4.493
326.87	4.518
327.07	4.514
327.28	4.519
327.49	4.502
327.70	4.477
327.91	4.456
328.11	4.439
328.32	4.489
328.53	4.501
328.74	4.465
328.95	4.483
329.15	4.469
329.36	4.510
329.57	4.497
329.78	4.480
329.99	4.494
330.19	4.451
330.40	4.463
330.61	4.431
330.82	4.386
331.03	4.355
331.23	4.375
331.44	4.340
331.65	4.278
331.86	4.348
332.07	4.352
332.27	4.310
332.48	4.315
332.69	4.320
332.90	4.348
333.10	4.409
333.31	4.421
333.52	4.351
333.73	4.359
333.94	4.372
334.14	4.283
334.35	4.314
334.56	4.317
334.77	4.291
334.97	4.265
335.18	4.219
335.39	4.145
335.60	4.134
335.80	4.157
336.01	4.187
336.22	4.132
336.43	4.205
336.64	4.184
336.84	4.189
337.05	4.192
337.26	4.178
337.47	4.150
337.67	4.222
337.88	4.231
338.09	4.209
338.30	4.174
338.50	4.250
338.71	4.206
338.92	4.222
339.13	4.245
339.33	4.287
339.54	4.249
339.75	4.253
339.96	4.221
340.16	4.174
340.37	4.190
340.58	4.173
340.79	4.181
340.99	4.194
341.20	4.114
341.41	4.082
341.62	4.018
341.82	4.060
342.03	4.040
342.24	3.980
342.44	4.017
342.65	4.013
342.86	4.005
343.07	3.965
343.27	3.969
343.48	4.011
343.69	4.014
343.90	4.051
344.10	4.008
344.31	4.034
344.52	4.097
344.72	4.072
344.93	4.060
345.14	4.074
345.35	4.064
345.55	4.046
345.76	4.047
345.97	4.071
346.18	4.063
346.38	4.110
346.59	4.075
346.80	4.065
347.00	4.062
347.21	4.087
347.42	4.103
347.62	4.098
347.83	4.067
348.04	4.040
348.25	4.003
348.45	4.013
348.66	3.997
348.87	4.045
349.07	4.031
349.28	3.999
349.49	3.959
349.70	3.983
349.90	3.989
350.11	4.010
350.32	4.024
350.52	4.050
350.73	4.044
350.94	4.049
351.14	4.036
351.35	4.035
351.56	4.094
351.76	4.120
351.97	4.097
352.18	4.108
352.39	4.074
352.59	4.092
352.80	4.053
353.01	4.048
353.21	4.029
353.42	4.037
353.63	4.003
353.83	3.977
354.04	3.996
354.25	3.950
354.45	3.932
354.66	3.964
354.87	3.907
355.07	3.922
355.28	3.918
355.49	3.950
355.69	3.946
355.90	3.983
356.11	3.986
356.31	3.977
356.52	3.986
356.73	3.997
356.93	3.978
357.14	4.002
357.35	4.022
357.55	4.036
357.76	3.995
357.97	3.963
358.17	3.988
358.38	3.986
358.59	3.977
358.79	3.982
359.00	3.971
359.21	3.945
359.41	3.921
359.62	3.916
359.83	3.873
360.03	3.863
360.24	3.897
360.44	3.857
360.65	3.839
360.86	3.816
361.06	3.806
361.27	3.782
361.48	3.809
361.68	3.819
361.89	3.810
362.10	3.812
362.30	3.837
362.51	3.839
362.72	3.834
362.92	3.849
363.13	3.818
363.33	3.835
363.54	3.876
363.75	3.851
363.95	3.866
364.16	3.859
364.37	3.881
364.57	3.887
364.78	3.857
364.98	3.857
365.19	3.848
365.40	3.901
365.60	3.884
365.81	3.885
366.02	3.899
366.22	3.863
366.43	3.862
366.63	3.864
366.84	3.837
367.05	3.844
367.25	3.821
367.46	3.791
367.66	3.775
367.87	3.784
368.08	3.760
368.28	3.760
368.49	3.772
368.69	3.770
368.90	3.763
369.11	3.781
369.31	3.779
369.52	3.813
369.72	3.844
369.93	3.855
370.14	3.859
370.34	3.851
370.55	3.844
370.75	3.860
370.96	3.833
371.17	3.835
371.37	3.818
371.58	3.849
371.78	3.831
371.99	3.819
372.20	3.799
372.40	3.769
372.61	3.770
372.81	3.769
373.02	3.760
373.23	3.795
373.43	3.778
373.64	3.788
373.84	3.740
374.05	3.751
374.25	3.775
374.46	3.766
374.67	3.788
374.87	3.807
375.08	3.805
375.28	3.792
375.49	3.777
375.69	3.772
375.90	3.759
376.11	3.776
376.31	3.741
376.52	3.724
376.72	3.705
376.93	3.700
377.13	3.697
377.34	3.702
377.55	3.714
377.75	3.698
377.96	3.704
378.16	3.706
378.37	3.732
378.57	3.784
378.78	3.778
378.98	3.781
379.19	3.798
379.40	3.776
379.60	3.763
379.81	3.745
380.01	3.741
380.22	3.718
380.42	3.720
380.63	3.685
380.83	3.644
381.04	3.631
381.24	3.647
381.45	3.637
381.66	3.648
381.86	3.661
382.07	3.665
382.27	3.687
382.48	3.676
382.68	3.664
382.89	3.658
383.09	3.671
383.30	3.669
383.50	3.654
383.71	3.624
383.91	3.612
384.12	3.607
384.32	3.618
384.53	3.618
384.73	3.644
384.94	3.647
385.15	3.655
385.35	3.643
385.56	3.665
385.76	3.656
385.97	3.678
386.17	3.675
386.38	3.693
386.58	3.679
386.79	3.699
386.99	3.692
387.20	3.697
387.40	3.695
387.61	3.717
387.81	3.688
388.02	3.709
388.22	3.691
388.43	3.702
388.63	3.656
388.84	3.671
389.04	3.631
389.25	3.646
389.45	3.637
389.66	3.652
389.86	3.627
390.07	3.654
390.27	3.641
390.48	3.641
390.68	3.637
390.89	3.666
391.09	3.676
391.30	3.681
391.50	3.685
391.71	3.701
391.91	3.694
392.12	3.705
392.32	3.699
392.53	3.720
392.73	3.732
392.94	3.733
393.14	3.753
393.35	3.741
393.55	3.728
393.75	3.725
393.96	3.709
394.16	3.696
394.37	3.697
394.57	3.700
394.78	3.697
394.98	3.685
395.19	3.664
395.39	3.633
395.60	3.626
395.80	3.630
396.01	3.611
396.21	3.632
396.42	3.640
396.62	3.631
396.83	3.616
397.03	3.638
397.23	3.636
397.44	3.668
397.64	3.675
397.85	3.685
398.05	3.708
398.26	3.711
398.46	3.702
398.67	3.704
398.87	3.708
399.08	3.720
399.28	3.688
399.48	3.681
399.69	3.652
399.89	3.665
400.10	3.657
400.30	3.648
400.51	3.638
400.71	3.642
400.92	3.626
401.12	3.646
401.32	3.635
401.53	3.655
401.73	3.666
401.94	3.691
402.14	3.691
402.35	3.707
402.55	3.706
402.75	3.705
402.96	3.694
403.16	3.703
403.37	3.673
403.57	3.696
403.78	3.683
403.98	3.691
404.18	3.679
404.39	3.654
404.59	3.627
404.80	3.602
405.00	3.610
405.21	3.618
405.41	3.620
405.61	3.632
405.82	3.621
406.02	3.625
406.23	3.630
406.43	3.646
406.63	3.672
406.84	3.694
407.04	3.702
407.25	3.710
407.45	3.703
407.65	3.694
407.86	3.674
408.06	3.661
408.27	3.642
408.47	3.646
408.67	3.630
408.88	3.604
409.08	3.591
409.29	3.607
409.49	3.601
409.69	3.579
409.90	3.599
410.10	3.623
410.31	3.634
410.51	3.655
410.71	3.632
410.92	3.606
411.12	3.614
411.33	3.610
411.53	3.616
411.73	3.616
411.94	3.642
412.14	3.629
412.34	3.615
412.55	3.599
412.75	3.576
412.96	3.583
413.16	3.611
413.36	3.605
413.57	3.601
413.77	3.588
413.97	3.593
414.18	3.589
414.38	3.582
414.59	3.597
414.79	3.598
414.99	3.612
415.20	3.615
415.40	3.612
415.60	3.603
415.81	3.605
416.01	3.606
416.21	3.591
416.42	3.609
416.62	3.610
416.83	3.584
417.03	3.587
417.23	3.580
417.44	3.571
417.64	3.572
417.84	3.585
418.05	3.606
418.25	3.607
418.45	3.617
418.66	3.613
418.86	3.605
419.06	3.619
419.27	3.619
419.47	3.620
419.67	3.616
419.88	3.613
420.08	3.600
420.28	3.577
420.49	3.567
420.69	3.552
420.89	3.525
421.10	3.532
421.30	3.530
421.50	3.530
421.71	3.520
421.91	3.532
422.11	3.529
422.32	3.545
422.52	3.551
422.72	3.567
422.93	3.579
423.13	3.606
423.33	3.604
423.54	3.603
423.74	3.589
423.94	3.599
424.15	3.590
424.35	3.596
424.55	3.597
424.76	3.598
424.96	3.595
425.16	3.598
425.36	3.595
425.57	3.599
425.77	3.605
425.97	3.621
426.18	3.631
426.38	3.630
426.58	3.634
426.79	3.622
426.99	3.624
427.19	3.626
427.39	3.619
427.60	3.613
427.80	3.628
428.00	3.641
428.21	3.651
428.41	3.643
428.61	3.671
428.82	3.671
429.02	3.689
429.22	3.703
429.42	3.716
429.63	3.719
429.83	3.714
430.03	3.697
430.24	3.690
430.44	3.680
430.64	3.677
430.84	3.662
431.05	3.655
431.25	3.642
431.45	3.627
431.65	3.607
431.86	3.609
432.06	3.629
432.26	3.636
432.47	3.636
432.67	3.638
432.87	3.644
433.07	3.644
433.28	3.659
433.48	3.666
433.68	3.665
433.88	3.672
434.09	3.681
434.29	3.672
434.49	3.670
434.69	3.664
434.90	3.663
435.10	3.662
435.30	3.673
435.51	3.673
435.71	3.672
435.91	3.683
436.11	3.676
436.32	3.662
436.52	3.667
436.72	3.674
436.92	3.691
437.13	3.702
437.33	3.691
437.53	3.679
437.73	3.659
437.93	3.646
438.14	3.654
438.34	3.648
438.54	3.659
438.74	3.654
438.95	3.652
439.15	3.648
439.35	3.643
439.55	3.661
439.76	3.673
439.96	3.679
440.16	3.689
440.36	3.678
440.56	3.688
440.77	3.680
440.97	3.675
441.17	3.669
441.37	3.658
441.58	3.664
441.78	3.672
441.98	3.660
442.18	3.667
442.38	3.664
442.59	3.670
442.79	3.675
442.99	3.693
443.19	3.697
443.40	3.705
443.60	3.711
443.80	3.699
444.00	3.681
444.20	3.682
444.41	3.662
444.61	3.667
444.81	3.675
445.01	3.665
445.21	3.650
445.42	3.651
445.62	3.646
445.82	3.644
446.02	3.643
446.22	3.634
446.43	3.631
446.63	3.636
446.83	3.631
447.03	3.623
447.23	3.633
447.44	3.641
447.64	3.646
447.84	3.653
448.04	3.657
448.24	3.666
448.44	3.685
448.65	3.692
448.85	3.700
449.05	3.716
449.25	3.722
449.45	3.717
449.65	3.721
449.86	3.734
450.06	3.744
450.26	3.760
450.46	3.765
450.66	3.765
450.87	3.766
451.07	3.770
451.27	3.755
451.47	3.770
451.67	3.765
451.87	3.770
452.08	3.756
452.28	3.744
452.48	3.734
452.68	3.743
452.88	3.744
453.08	3.749
453.28	3.754
453.49	3.770
453.69	3.770
453.89	3.767
454.09	3.756
454.29	3.761
454.49	3.774
454.70	3.773
454.90	3.766
455.10	3.769
455.30	3.755
455.50	3.777
455.70	3.780
455.90	3.777
456.11	3.780
456.31	3.785
456.51	3.789
456.71	3.790
456.91	3.808
457.11	3.820
457.31	3.818
457.51	3.836
457.72	3.812
457.92	3.807
458.12	3.785
458.32	3.790
458.52	3.789
458.72	3.786
458.92	3.766
459.12	3.753
459.33	3.737
459.53	3.740
459.73	3.746
459.93	3.746
460.13	3.745
460.33	3.751
460.53	3.753
460.73	3.746
460.93	3.752
461.14	3.766
461.34	3.777
461.54	3.794
461.74	3.800
461.94	3.800
462.14	3.804
462.34	3.808
462.54	3.818
462.74	3.824
462.95	3.844
463.15	3.836
463.35	3.832
463.55	3.839
463.75	3.831
463.95	3.831
464.15	3.834
464.35	3.849
464.55	3.845
464.75	3.843
464.95	3.843
465.16	3.844
465.36	3.846
465.56	3.852
465.76	3.841
465.96	3.849
466.16	3.855
466.36	3.850
466.56	3.836
466.76	3.833
466.96	3.839
467.16	3.837
467.36	3.840
467.57	3.851
467.77	3.858
467.97	3.858
468.17	3.864
468.37	3.855
468.57	3.874
468.77	3.873
468.97	3.883
469.17	3.893
469.37	3.898
469.57	3.891
469.77	3.888
469.97	3.880
470.17	3.891
470.37	3.876
470.57	3.882
470.78	3.871
470.98	3.898
471.18	3.906
471.38	3.903
471.58	3.907
471.78	3.922
471.98	3.923
472.18	3.934
472.38	3.931
472.58	3.949
472.78	3.966
472.98	3.975
473.18	3.961
473.38	3.957
473.58	3.967
473.78	3.969
473.98	3.972
474.18	3.986
474.38	3.978
474.58	3.978
474.78	3.978
474.98	3.966
475.18	3.966
475.38	3.966
475.58	3.970
475.79	3.957
475.99	3.958
476.19	3.958
476.39	3.944
476.59	3.953
476.79	3.960
476.99	3.953
477.19	3.959
477.39	3.949
477.59	3.962
477.79	3.952
477.99	3.948
478.19	3.943
478.39	3.950
478.59	3.950
478.79	3.954
478.99	3.952
479.19	3.961
479.39	3.966
479.59	3.987
479.79	3.986
479.99	4.008
480.19	4.006
480.39	4.008
480.59	4.008
480.79	4.020
480.99	4.016
481.19	4.019
481.39	4.010
481.59	4.002
481.79	4.003
481.99	4.000
482.19	3.999
482.39	4.003
482.59	4.002
482.79	3.984
482.99	3.978
483.19	4.006
483.39	4.066
483.59	4.116
483.79	4.120
483.99	4.102
484.19	4.087
484.39	4.082
484.58	4.083
484.78	4.084
484.98	4.093
485.18	4.100
485.38	4.091
485.58	4.044
485.78	3.991
485.98	3.975
486.18	3.983
486.38	3.999
486.58	4.003
486.78	4.006
486.98	4.017
487.18	4.018
487.38	4.022
487.58	4.027
487.78	4.029
487.98	4.035
488.18	4.039
488.38	4.042
488.58	4.046
488.78	4.042
488.98	4.049
489.18	4.042
489.37	4.043
489.57	4.048
489.77	4.046
489.97	4.046
490.17	4.052
490.37	4.057
490.57	4.061
490.77	4.057
490.97	4.069
491.17	4.063
491.37	4.073
491.57	4.087
491.77	4.083
491.97	4.089
492.17	4.095
492.37	4.100
492.56	4.103
492.76	4.107
492.96	4.120
493.16	4.128
493.36	4.138
493.56	4.140
493.76	4.135
493.96	4.152
494.16	4.155
494.36	4.158
494.56	4.163
494.76	4.164
494.95	4.172
495.15	4.173
495.35	4.168
495.55	4.172
495.75	4.178
495.95	4.193
496.15	4.197
496.35	4.198
496.55	4.204
496.75	4.210
496.95	4.218
497.14	4.228
497.34	4.228
497.54	4.245
497.74	4.260
497.94	4.270
498.14	4.271
498.34	4.268
498.54	4.282
498.74	4.288
498.93	4.296
499.13	4.300
499.33	4.296
499.53	4.305
499.73	4.309
499.93	4.312
500.13	4.311
500.33	4.320
500.53	4.328
500.72	4.335
500.92	4.327
501.12	4.332
501.32	4.336
501.52	4.347
501.72	4.347
501.92	4.340
502.12	4.331
502.31	4.349
502.51	4.352
502.71	4.356
502.91	4.355
503.11	4.372
503.31	4.370
503.51	4.375
503.70	4.373
503.90	4.383
504.10	4.393
504.30	4.400
504.50	4.396
504.70	4.399
504.90	4.402
505.09	4.408
505.29	4.413
505.49	4.414
505.69	4.426
505.89	4.434
506.09	4.433
506.29	4.439
506.48	4.448
506.68	4.457
506.88	4.461
507.08	4.473
507.28	4.488
507.48	4.487
507.67	4.490
507.87	4.487
508.07	4.498
508.27	4.503
508.47	4.497
508.67	4.502
508.86	4.502
509.06	4.503
509.26	4.498
509.46	4.498
509.66	4.502
509.85	4.519
510.05	4.529
510.25	4.524
510.45	4.539
510.65	4.549
510.85	4.544
511.04	4.547
511.24	4.553
511.44	4.564
511.64	4.565
511.84	4.576
512.03	4.567
512.23	4.571
512.43	4.574
512.63	4.580
512.83	4.587
513.02	4.603
513.22	4.611
513.42	4.625
513.62	4.621
513.82	4.628
514.01	4.641
514.21	4.654
514.41	4.659
514.61	4.667
514.81	4.657
515.00	4.654
515.20	4.648
515.40	4.652
515.60	4.644
515.80	4.661
515.99	4.663
516.19	4.651
516.39	4.649
516.59	4.643
516.78	4.653
516.98	4.662
517.18	4.650
517.38	4.658
517.58	4.655
517.77	4.663
517.97	4.659
518.17	4.663
518.37	4.682
518.56	4.688
518.76	4.698
518.96	4.706
519.16	4.703
519.36	4.720
519.55	4.731
519.75	4.749
519.95	4.762
520.15	4.773
520.34	4.777
520.54	4.771
520.74	4.779
520.94	4.785
521.13	4.787
521.33	4.801
521.53	4.814
521.73	4.822
521.92	4.817
522.12	4.828
522.32	4.835
522.52	4.851
522.71	4.876
522.91	4.881
523.11	4.888
523.31	4.883
523.50	4.878
523.70	4.881
523.90	4.878
524.09	4.886
524.29	4.877
524.49	4.885
524.69	4.889
524.88	4.881
525.08	4.884
525.28	4.886
525.48	4.894
525.67	4.904
525.87	4.904
526.07	4.902
526.26	4.902
526.46	4.907
526.66	4.909
526.86	4.904
527.05	4.906
527.25	4.915
527.45	4.921
527.64	4.924
527.84	4.927
528.04	4.933
528.24	4.951
528.43	4.962
528.63	4.974
528.83	4.978
529.02	4.984
529.22	4.990
529.42	4.988
529.62	4.991
529.81	4.995
530.01	5.002
530.21	5.008
530.40	5.007
530.60	5.005
530.80	5.004
530.99	5.010
531.19	5.020
531.39	5.024
531.58	5.043
531.78	5.058
531.98	5.071
532.18	5.082
532.37	5.097
532.57	5.101
532.77	5.116
532.96	5.116
533.16	5.121
533.36	5.127
533.55	5.135
533.75	5.131
533.95	5.131
534.14	5.137
534.34	5.146
534.54	5.149
534.73	5.166
534.93	5.176
535.13	5.187
535.32	5.191
535.52	5.191
535.72	5.204
535.91	5.222
536.11	5.226
536.31	5.238
536.50	5.242
536.70	5.254
536.90	5.264
537.09	5.277
537.29	5.279
537.48	5.295
537.68	5.305
537.88	5.309
538.07	5.312
538.27	5.329
538.47	5.340
538.66	5.351
538.86	5.352
539.06	5.353
539.25	5.354
539.45	5.376
539.65	5.387
539.84	5.405
540.04	5.409
540.23	5.427
540.43	5.430
540.63	5.431
540.82	5.435
541.02	5.442
541.22	5.443
541.41	5.450
541.61	5.455
541.80	5.455
542.00	5.452
542.20	5.455
542.39	5.458
542.59	5.462
542.79	5.469
542.98	5.474
543.18	5.482
543.37	5.495
543.57	5.497
543.77	5.508
543.96	5.521
544.16	5.534
544.35	5.552
544.55	5.568
544.75	5.575
544.94	5.586
545.14	5.594
545.33	5.613
545.53	5.629
545.73	5.639
545.92	5.642
546.12	5.648
546.31	5.656
546.51	5.665
546.71	5.668
546.90	5.692
547.10	5.702
547.29	5.722
547.49	5.732
547.69	5.742
547.88	5.755
548.08	5.759
548.27	5.768
548.47	5.774
548.66	5.777
548.86	5.784
549.06	5.791
549.25	5.810
549.45	5.819
549.64	5.829
549.84	5.830
550.03	5.841
550.23	5.873
550.43	5.876
550.62	5.902
550.82	5.926
551.01	5.947
551.21	5.948
551.40	5.950
551.60	5.968
551.80	5.970
551.99	5.982
552.19	5.987
552.38	5.982
552.58	5.995
552.77	6.002
552.97	6.004
553.16	5.994
553.36	6.006
553.56	6.025
553.75	6.022
553.95	6.036
554.14	6.042
554.34	6.061
554.53	6.075
554.73	6.094
554.92	6.096
555.12	6.104
555.31	6.117
555.51	6.140
555.70	6.146
555.90	6.157
556.10	6.164
556.29	6.170
556.49	6.173
556.68	6.187
556.88	6.191
557.07	6.207
557.27	6.232
557.46	6.254
557.66	6.248
557.85	6.252
558.05	6.263
558.24	6.271
558.44	6.290
558.63	6.299
558.83	6.294
559.02	6.306
559.22	6.320
559.41	6.322
559.61	6.319
559.80	6.333
560.00	6.344
560.19	6.353
560.39	6.370
560.58	6.376
560.78	6.393
560.97	6.404
561.17	6.416
561.36	6.426
561.56	6.437
561.75	6.450
561.95	6.467
562.14	6.480
562.34	6.487
562.53	6.488
562.73	6.504
562.92	6.513
563.12	6.537
563.31	6.540
563.51	6.543
563.70	6.543
563.90	6.567
564.09	6.571
564.29	6.588
564.48	6.603
564.68	6.616
564.87	6.629
565.07	6.629
565.26	6.636
565.45	6.662
565.65	6.678
565.84	6.690
566.04	6.674
566.23	6.685
566.43	6.686
566.62	6.688
566.82	6.706
567.01	6.694
567.21	6.711
567.40	6.709
567.60	6.705
567.79	6.712
567.98	6.737
568.18	6.765
568.37	6.766
568.57	6.774
568.76	6.798
568.96	6.796
569.15	6.827
569.35	6.843
569.54	6.858
569.73	6.867
569.93	6.882
570.12	6.868
570.32	6.874
570.51	6.893
570.71	6.903
570.90	6.908
571.09	6.931
571.29	6.943
571.48	6.949
571.68	6.967
571.87	6.979
572.07	6.986
572.26	7.005
572.45	7.019
572.65	7.042
572.84	7.050
573.04	7.054
573.23	7.061
573.43	7.072
573.62	7.085
573.81	7.096
574.01	7.114
574.20	7.115
574.40	7.116
574.59	7.123
574.78	7.113
574.98	7.124
575.17	7.137
575.37	7.150
575.56	7.154
575.75	7.157
575.95	7.171
576.14	7.173
576.34	7.178
576.53	7.201
576.72	7.216
576.92	7.246
577.11	7.257
577.31	7.281
577.50	7.280
577.69	7.310
577.89	7.322
578.08	7.328
578.28	7.343
578.47	7.365
578.66	7.376
578.86	7.397
579.05	7.419
579.24	7.444
579.44	7.436
579.63	7.460
579.83	7.458
580.02	7.475
580.21	7.497
580.41	7.517
580.60	7.543
580.79	7.565
580.99	7.572
581.18	7.566
581.38	7.572
581.57	7.606
581.76	7.611
581.96	7.634
582.15	7.648
582.34	7.654
582.54	7.669
582.73	7.688
582.92	7.700
583.12	7.721
583.31	7.730
583.50	7.735
583.70	7.747
583.89	7.777
584.08	7.783
584.28	7.795
584.47	7.808
584.66	7.823
584.86	7.817
585.05	7.834
585.24	7.834
585.44	7.846
585.63	7.876
585.82	7.895
586.02	7.888
586.21	7.908
586.40	7.912
586.60	7.928
586.79	7.939
586.98	7.937
587.18	7.942
587.37	7.954
587.56	7.977
587.76	7.987
587.95	7.996
588.14	8.017
588.34	8.032
588.53	8.053
588.72	8.062
588.92	8.073
589.11	8.129
589.30	8.129
589.50	8.152
589.69	8.169
589.88	8.170
590.07	8.184
590.27	8.189
590.46	8.182
590.65	8.194
590.85	8.203
591.04	8.206
591.23	8.199
591.43	8.220
591.62	8.226
591.81	8.226
592.00	8.236
592.20	8.235
592.39	8.269
592.58	8.291
592.78	8.321
592.97	8.337
593.16	8.353
593.35	8.365
593.55	8.360
593.74	8.370
593.93	8.395
594.13	8.432
594.32	8.455
594.51	8.489
594.70	8.505
594.90	8.498
595.09	8.495
595.28	8.506
595.47	8.530
595.67	8.568
595.86	8.574
596.05	8.590
596.24	8.594
596.44	8.592
596.63	8.581
596.82	8.579
597.02	8.603
597.21	8.623
597.40	8.647
597.59	8.641
597.79	8.626
597.98	8.645
598.17	8.649
598.36	8.655
598.56	8.674
598.75	8.676
598.94	8.705
599.13	8.721
599.32	8.757
599.52	8.757
599.71	8.801
599.90	8.838
600.09	8.853
600.29	8.866
600.48	8.880
600.67	8.899
600.86	8.914
601.06	8.934
601.25	8.949
601.44	8.953
601.63	8.975
601.82	8.980
602.02	9.011
602.21	9.016
602.40	9.048
602.59	9.067
602.79	9.085
602.98	9.103
603.17	9.088
603.36	9.092
603.55	9.104
603.75	9.114
603.94	9.111
604.13	9.107
604.32	9.125
604.51	9.120
604.71	9.132
604.90	9.131
605.09	9.142
605.28	9.163
605.47	9.177
605.67	9.177
605.86	9.190
606.05	9.214
606.24	9.219
606.43	9.238
606.63	9.269
606.82	9.276
607.01	9.298
607.20	9.318
607.39	9.341
607.59	9.347
607.78	9.376
607.97	9.383
608.16	9.383
608.35	9.400
608.54	9.399
608.74	9.400
608.93	9.416
609.12	9.414
609.31	9.417
609.50	9.433
609.69	9.461
609.89	9.471
610.08	9.491
610.27	9.506
610.46	9.526
610.65	9.552
610.84	9.550
611.04	9.566
611.23	9.600
611.42	9.616
611.61	9.621
611.80	9.626
611.99	9.635
612.19	9.650
612.38	9.657
612.57	9.676
612.76	9.689
612.95	9.724
613.14	9.735
613.33	9.734
613.53	9.754
613.72	9.784
613.91	9.786
614.10	9.803
614.29	9.826
614.48	9.859
614.67	9.877
614.86	9.896
615.06	9.908
615.25	9.928
615.44	9.961
615.63	9.967
615.82	9.967
616.01	9.993
616.20	10.002
616.39	10.005
616.59	10.003
616.78	10.018
616.97	10.047
617.16	10.056
617.35	10.082
617.54	10.074
617.73	10.109
617.92	10.143
618.12	10.149
618.31	10.160
618.50	10.171
618.69	10.194
618.88	10.201
619.07	10.197
619.26	10.226
619.45	10.234
619.64	10.258
619.83	10.272
620.03	10.288
620.22	10.310
620.41	10.334
620.60	10.343
620.79	10.359
620.98	10.363
621.17	10.381
621.36	10.383
621.55	10.409
621.74	10.429
621.93	10.438
622.12	10.422
622.32	10.437
622.51	10.444
622.70	10.475
622.89	10.482
623.08	10.511
623.27	10.534
623.46	10.537
623.65	10.534
623.84	10.556
624.03	10.557
624.22	10.606
624.41	10.614
624.60	10.637
624.79	10.647
624.99	10.657
625.18	10.656
625.37	10.661
625.56	10.685
625.75	10.706
625.94	10.715
626.13	10.731
626.32	10.729
626.51	10.753
626.70	10.753
626.89	10.759
627.08	10.786
627.27	10.791
627.46	10.787
627.65	10.802
627.84	10.815
628.03	10.824
628.22	10.840
628.41	10.848
628.60	10.845
628.79	10.875
628.98	10.882
629.17	10.887
629.37	10.927
629.56	10.957
629.75	10.967
629.94	10.977
630.13	10.989
630.32	10.998
630.51	11.023
630.70	11.042
630.89	11.058
631.08	11.100
631.27	11.112
631.46	11.141
631.65	11.159
631.84	11.187
632.03	11.199
632.22	11.209
632.41	11.234
632.60	11.248
632.79	11.264
632.98	11.273
633.17	11.271
633.36	11.292
633.55	11.271
633.74	11.287
633.93	11.300
634.12	11.320
634.31	11.351
634.50	11.381
634.69	11.390
634.88	11.405
635.07	11.415
635.26	11.418
635.45	11.423
635.64	11.448
635.83	11.469
636.02	11.480
636.21	11.493
636.40	11.510
636.59	11.509
636.78	11.530
636.96	11.542
637.15	11.552
637.34	11.574
637.53	11.597
637.72	11.623
637.91	11.628
638.10	11.636
638.29	11.659
638.48	11.663
638.67	11.670
638.86	11.675
639.05	11.720
639.24	11.750
639.43	11.790
639.62	11.792
639.81	11.802
640.00	11.808
640.19	11.845
640.38	11.869
640.57	11.895
640.76	11.923
640.95	11.954
641.14	11.938
641.32	11.973
641.51	11.967
641.70	12.003
641.89	12.033
642.08	12.069
642.27	12.059
642.46	12.062
642.65	12.052
642.84	12.076
643.03	12.101
643.22	12.126
643.41	12.125
643.60	12.165
643.79	12.192
643.98	12.196
644.16	12.219
644.35	12.247
644.54	12.266
644.73	12.326
644.92	12.342
645.11	12.347
645.30	12.354
645.49	12.374
645.68	12.369
645.87	12.371
646.06	12.385
646.24	12.395
646.43	12.399
646.62	12.419
646.81	12.417
647.00	12.423
647.19	12.438
647.38	12.464
647.57	12.478
647.76	12.497
647.95	12.508
648.13	12.516
648.32	12.506
648.51	12.545
648.70	12.548
648.89	12.539
649.08	12.545
649.27	12.559
649.46	12.570
649.65	12.558
649.83	12.562
650.02	12.571
650.21	12.610
650.40	12.627
650.59	12.627
650.78	12.651
650.97	12.692
651.16	12.724
651.34	12.735
651.53	12.741
651.72	12.761
651.91	12.783
652.10	12.802
652.29	12.808
652.48	12.852
652.66	12.902
652.85	12.912
653.04	12.938
653.23	12.926
653.42	12.952
653.61	12.965
653.80	12.985
653.98	12.982
654.17	13.010
654.36	13.034
654.55	13.044
654.74	13.024
654.93	13.062
655.11	13.065
655.30	13.090
655.49	13.094
655.68	13.123
655.87	13.169
656.06	13.195
656.24	13.209
656.43	13.201
656.62	13.209
656.81	13.234
657.00	13.251
657.19	13.268
657.37	13.303
657.56	13.321
657.75	13.295
657.94	13.316
658.13	13.337
658.31	13.353
658.50	13.389
658.69	13.410
658.88	13.400
659.07	13.393
659.26	13.395
659.44	13.374
659.63	13.398
659.82	13.453
660.01	13.442
660.20	13.447
660.38	13.471
660.57	13.483
660.76	13.488
660.95	13.522
661.14	13.530
661.32	13.538
661.51	13.579
661.70	13.606
661.89	13.626
662.08	13.665
662.26	13.681
662.45	13.672
662.64	13.668
662.83	13.684
663.01	13.688
663.20	13.719
663.39	13.760
663.58	13.772
663.77	13.755
663.95	13.794
664.14	13.780
664.33	13.827
664.52	13.855
664.70	13.878
664.89	13.911
665.08	13.938
665.27	13.951
665.45	13.958
665.64	13.986
665.83	14.007
666.02	14.006
666.20	14.016
666.39	13.996
666.58	14.025
666.77	14.036
666.95	14.028
667.14	14.045
667.33	14.065
667.52	14.068
667.70	14.081
667.89	14.090
668.08	14.117
668.27	14.146
668.45	14.175
668.64	14.179
668.83	14.199
669.02	14.220
669.20	14.238
669.39	14.228
669.58	14.275
669.77	14.286
669.95	14.308
670.14	14.285
670.33	14.297
670.51	14.314
670.70	14.330
670.89	14.346
671.08	14.375
671.26	14.398
671.45	14.415
671.64	14.409
671.82	14.432
672.01	14.451
672.20	14.474
672.39	14.486
672.57	14.518
672.76	14.526
672.95	14.534
673.13	14.539
673.32	14.566
673.51	14.593
673.70	14.591
673.88	14.603
674.07	14.615
674.26	14.625
674.44	14.667
674.63	14.672
674.82	14.703
675.00	14.737
675.19	14.745
675.38	14.728
675.56	14.748
675.75	14.780
675.94	14.793
676.12	14.780
676.31	14.820
676.50	14.803
676.69	14.833
676.87	14.845
677.06	14.841
677.25	14.856
677.43	14.874
677.62	14.896
677.81	14.914
677.99	14.939
678.18	14.971
678.37	14.984
678.55	15.008
678.74	15.002
678.93	15.023
679.11	15.006
679.30	15.015
679.48	15.040
679.67	15.040
679.86	15.036
680.04	15.050
680.23	15.078
680.42	15.078
680.60	15.090
680.79	15.103
680.98	15.111
681.16	15.149
681.35	15.190
681.54	15.154
681.72	15.174
681.91	15.194
682.10	15.207
682.28	15.217
682.47	15.241
682.65	15.251
682.84	15.282
683.03	15.292
683.21	15.318
683.40	15.301
683.59	15.370
683.77	15.406
683.96	15.436
684.14	15.448
684.33	15.463
684.52	15.499
684.70	15.501
684.89	15.523
685.07	15.557
685.26	15.577
685.45	15.597
685.63	15.603
685.82	15.625
686.00	15.639
686.19	15.666
686.38	15.698
686.56	15.685
686.75	15.732
686.93	15.731
687.12	15.719
687.31	15.746
687.49	15.783
687.68	15.791
687.86	15.779
688.05	15.796
688.24	15.805
688.42	15.804
688.61	15.820
688.79	15.836
688.98	15.862
689.17	15.872
689.35	15.883
689.54	15.899
689.72	15.917
689.91	15.919
690.09	15.953
690.28	15.968
690.47	15.983
690.65	16.001
690.84	16.017
691.02	16.009
691.21	16.043
691.39	16.052
691.58	16.071
691.76	16.089
691.95	16.131
692.14	16.141
692.32	16.134
692.51	16.185
692.69	16.208
692.88	16.203
693.06	16.200
693.25	16.204
693.43	16.213
693.62	16.208
693.81	16.199
693.99	16.191
694.18	16.196
694.36	16.213
694.55	16.206
694.73	16.217
694.92	16.244
695.10	16.267
695.29	16.287
695.47	16.305
695.66	16.319
695.84	16.372
696.03	16.397
696.21	16.402
696.40	16.447
696.59	16.441
696.77	16.448
696.96	16.451
697.14	16.462
697.33	16.507
697.51	16.524
697.70	16.563
697.88	16.586
698.07	16.602
698.25	16.607
698.44	16.599
698.62	16.621
698.81	16.638
698.99	16.646
699.18	16.683
699.36	16.675
699.55	16.661
699.73	16.638
699.92	16.626
700.10	16.637
700.29	16.658
700.47	16.666
700.66	16.686
700.84	16.694
701.03	16.695
701.21	16.664
701.40	16.663
701.58	16.689
701.77	16.735
701.95	16.758
702.13	16.763
702.32	16.792
702.50	16.861
702.69	16.856
702.87	16.861
703.06	16.923
703.24	16.989
703.43	17.043
703.61	17.092
703.80	17.112
703.98	17.096
704.17	17.129
704.35	17.113
704.54	17.107
704.72	17.140
704.90	17.167
705.09	17.150
705.27	17.199
705.46	17.210
705.64	17.189
705.83	17.169
706.01	17.238
706.20	17.265
706.38	17.319
706.56	17.289
706.75	17.333
706.93	17.366
707.12	17.421
707.30	17.404
707.49	17.406
707.67	17.457
707.86	17.506
708.04	17.537
708.22	17.536
708.41	17.523
708.59	17.537
708.78	17.518
708.96	17.572
709.14	17.595
709.33	17.632
709.51	17.622
709.70	17.624
709.88	17.648
710.07	17.633
710.25	17.688
710.43	17.737
710.62	17.798
710.80	17.818
710.99	17.836
711.17	17.838
711.35	17.851
711.54	17.872
711.72	17.889
711.91	17.921
712.09	17.930
712.27	17.909
712.46	17.898
712.64	17.915
712.83	17.946
713.01	17.931
713.19	17.944
713.38	17.944
713.56	17.993
713.75	18.002
713.93	18.004
714.11	18.012
714.30	18.032
714.48	18.024
714.66	18.030
714.85	18.052
715.03	18.084
715.22	18.077
715.40	18.112
715.58	18.141
715.77	18.178
715.95	18.204
716.13	18.246
716.32	18.255
716.50	18.277
716.68	18.267
716.87	18.268
717.05	18.249
717.24	18.264
717.42	18.264
717.60	18.262
717.79	18.231
717.97	18.217
718.15	18.225
718.34	18.240
718.52	18.322
718.70	18.339
718.89	18.316
719.07	18.330
719.25	18.364
719.44	18.383
719.62	18.372
719.80	18.424
719.99	18.409
720.17	18.399
720.35	18.410
720.54	18.347
720.72	18.366
720.90	18.415
721.09	18.427
721.27	18.431
721.45	18.415
721.64	18.436
721.82	18.460
722.00	18.484
722.19	18.538
722.37	18.582
722.55	18.648
722.74	18.667
722.92	18.693
723.10	18.722
723.28	18.773
723.47	18.834
723.65	18.866
723.83	18.903
724.02	18.958
724.20	18.934
724.38	18.924
724.57	18.925
724.75	19.000
724.93	19.000
725.11	18.993
725.30	18.949
725.48	18.975
725.66	18.995
725.85	18.999
726.03	18.987
726.21	19.069
726.39	19.094
726.58	19.147
726.76	19.114
726.94	19.137
727.13	19.163
727.31	19.207
727.49	19.218
727.67	19.236
727.86	19.251
728.04	19.307
728.22	19.307
728.40	19.324
728.59	19.303
728.77	19.318
728.95	19.337
729.13	19.353
729.32	19.361
729.50	19.370
729.68	19.374
729.86	19.353
730.05	19.331
730.23	19.336
730.41	19.330
730.59	19.359
730.78	19.396
730.96	19.419
731.14	19.433
731.32	19.467
731.51	19.465
731.69	19.470
731.87	19.489
732.05	19.520
732.24	19.542
732.42	19.601
732.60	19.600
732.78	19.572
732.97	19.595
733.15	19.656
733.33	19.679
733.51	19.693
733.69	19.675
733.88	19.692
734.06	19.684
734.24	19.655
734.42	19.655
734.60	19.673
734.79	19.698
734.97	19.707
735.15	19.667
735.33	19.639
735.52	19.655
735.70	19.706
735.88	19.734
736.06	19.750
736.24	19.782
736.43	19.802
736.61	19.822
736.79	19.861
736.97	19.879
737.15	19.944
737.34	19.985
737.52	19.979
737.70	19.993
737.88	19.997
738.06	20.032
738.24	20.093
738.43	20.098
738.61	20.126
738.79	20.114
738.97	20.154
739.15	20.114
739.33	20.114
739.52	20.139
739.70	20.169
739.88	20.213
740.06	20.210
740.24	20.135
740.42	20.157
740.61	20.112
740.79	20.191
740.97	20.120
741.15	20.166
741.33	20.196
741.51	20.220
741.70	20.194
741.88	20.205
742.06	20.236
742.24	20.316
742.42	20.331
742.60	20.383
742.78	20.306
742.97	20.351
743.15	20.374
743.33	20.428
743.51	20.453
743.69	20.514
743.87	20.536
744.05	20.547
744.24	20.575
744.42	20.581
744.60	20.564
744.78	20.653
744.96	20.681
745.14	20.709
745.32	20.698
745.50	20.675
745.69	20.706
745.87	20.697
746.05	20.685
746.23	20.690
746.41	20.681
746.59	20.719
746.77	20.679
746.95	20.667
747.13	20.574
747.32	20.552
747.50	20.546
747.68	20.547
747.86	20.579
748.04	20.655
748.22	20.649
748.40	20.708
748.58	20.755
748.76	20.788
748.94	20.832
749.13	20.933
749.31	20.999
749.49	21.064
749.67	21.090
749.85	21.099
750.03	21.111
750.21	21.137
750.39	21.129
750.57	21.135
750.75	21.158
750.93	21.176
751.11	21.180
751.30	21.177
751.48	21.222
751.66	21.218
751.84	21.141
752.02	21.143
752.20	21.209
752.38	21.228
752.56	21.256
752.74	21.242
752.92	21.252
753.10	21.275
753.28	21.260
753.46	21.289
753.64	21.318
753.82	21.378
754.00	21.380
754.18	21.363
754.37	21.348
754.55	21.341
754.73	21.359
754.91	21.384
755.09	21.409
755.27	21.427
755.45	21.363
755.63	21.386
755.81	21.477
755.99	21.450
756.17	21.456
756.35	21.508
756.53	21.537
756.71	21.600
756.89	21.645
757.07	21.594
757.25	21.647
757.43	21.673
757.61	21.661
757.79	21.613
757.97	21.633
758.15	21.653
758.33	21.712
758.51	21.696
758.69	21.711
758.87	21.697
759.05	21.738
759.23	21.731
759.41	21.780
759.59	21.857
759.77	21.863
759.95	21.894
760.13	21.938
760.31	21.944
760.49	21.975
760.67	22.010
760.85	21.998
761.03	22.014
761.21	22.085
761.39	22.086
761.57	22.058
761.75	22.106
761.93	22.119
762.11	22.070
762.29	22.062
762.47	22.088
762.65	22.094
762.83	22.127
763.01	22.180
763.19	22.159
763.37	22.217
763.55	22.286
763.73	22.326
763.91	22.374
764.09	22.415
764.27	22.412
764.45	22.401
764.63	22.384
764.81	22.407
764.99	22.416
765.16	22.406
765.34	22.408
765.52	22.380
765.70	22.377
765.88	22.361
766.06	22.344
766.24	22.345
766.42	22.360
766.60	22.359
766.78	22.351
766.96	22.350
767.14	22.381
767.32	22.364
767.50	22.323
767.68	22.301
767.86	22.313
768.03	22.363
768.21	22.395
768.39	22.389
768.57	22.391
768.75	22.425
768.93	22.409
769.11	22.456
769.29	22.477
769.47	22.507
769.65	22.564
769.83	22.579
770.01	22.578
770.19	22.576
770.36	22.622
770.54	22.684
770.72	22.690
770.90	22.695
771.08	22.699
771.26	22.724
771.44	22.798
771.62	22.821
771.80	22.858
771.98	22.820
772.15	22.898
772.33	22.884
772.51	22.917
772.69	22.976
772.87	23.079
773.05	23.075
773.23	23.105
773.41	23.091
773.58	23.081
773.76	23.146
773.94	23.182
774.12	23.107
774.30	23.142
774.48	23.094
774.66	23.008
774.84	22.892
775.01	22.880
775.19	22.836
775.37	22.904
775.55	22.936
775.73	22.868
775.91	22.941
776.09	22.980
776.26	22.976
776.44	22.987
776.62	23.075
776.80	23.168
776.98	23.183
777.16	23.262
777.34	23.245
777.51	23.181
777.69	23.232
777.87	23.200
778.05	23.221
778.23	23.266
778.41	23.277
778.58	23.291
778.76	23.293
778.94	23.346
779.12	23.373
779.30	23.359
779.48	23.404
779.65	23.376
779.83	23.377
780.01	23.400
780.19	23.477
780.37	23.526
780.55	23.511
780.72	23.500
780.90	23.476
781.08	23.479
781.26	23.655
781.44	23.664
781.61	23.714
781.79	23.752
781.97	23.725
782.15	23.670
782.33	23.686
782.50	23.635
782.68	23.784
782.86	23.775
783.04	23.704
783.22	23.564
783.39	23.610
783.57	23.646
783.75	23.631
783.93	23.722
784.11	23.640
784.28	23.520
784.46	23.599
784.64	23.517
784.82	23.657
784.99	23.652
785.17	23.704
785.35	23.683
785.53	23.662
785.71	23.752
785.88	23.652
786.06	23.804
786.24	23.907
786.42	23.994
786.59	24.010
786.77	23.902
786.95	24.009
787.13	24.004
787.30	24.123
787.48	24.070
787.66	24.002
787.84	24.139
788.01	24.160
788.19	24.269
788.37	24.237
788.55	24.258
788.72	24.326
788.90	24.306
789.08	24.374
789.26	24.311
789.43	24.404
789.61	24.462
789.79	24.416
789.97	24.436
790.14	24.361
790.32	24.366
790.50	24.369
790.68	24.375
790.85	24.398
791.03	24.400
791.21	24.424
791.38	24.435
791.56	24.485
791.74	24.518
791.92	24.459
792.09	24.550
792.27	24.568
792.45	24.606
792.62	24.619
792.80	24.581
792.98	24.468
793.16	24.485
793.33	24.455
793.51	24.402
793.69	24.434
793.86	24.456
794.04	24.425
794.22	24.332
794.39	24.274
794.57	24.191
794.75	24.292
794.93	24.422
795.10	24.362
795.28	24.402
795.46	24.451
795.63	24.457
795.81	24.477
795.99	24.517
796.16	24.687
796.34	24.825
796.52	24.942
796.69	24.949
796.87	24.879
797.05	24.971
797.22	24.930
797.40	24.947
797.58	24.965
797.75	25.016
797.93	25.042
798.11	25.077
798.28	25.098
798.46	25.083
798.64	25.002
798.81	25.019
798.99	25.013
799.17	25.104
799.34	25.057
799.52	25.019
799.70	24.939
799.87	24.963
800.05	24.858
800.22	24.717
800.40	24.699
800.58	24.848
800.75	24.945
800.93	25.021
801.11	24.941
801.28	25.072
801.46	25.053
801.63	25.180
801.81	25.223
801.99	25.422
802.16	25.486
802.34	25.557
802.52	25.540
802.69	25.543
802.87	25.564
803.04	25.640
803.22	25.535
803.40	25.534
803.57	25.469
803.75	25.356
803.93	25.213
804.10	25.201
804.28	25.182
804.45	25.119
804.63	25.132
804.81	25.031
804.98	25.104
805.16	25.165
805.33	25.326
805.51	25.436
805.68	25.506
805.86	25.580
806.04	25.613
806.21	25.651
806.39	25.757
806.56	25.734
806.74	25.852
806.92	25.866
807.09	25.852
807.27	25.794
807.44	25.725
807.62	25.768
807.79	25.754
807.97	25.867
808.15	25.847
808.32	25.776
808.50	25.853
808.67	25.914
808.85	25.962
809.02	26.007
809.20	26.012
809.38	26.074
809.55	26.050
809.73	26.063
809.90	26.014
810.08	26.015
810.25	26.033
810.43	25.995
810.60	25.828
810.78	25.783
810.95	25.763
811.13	25.835
811.31	25.777
811.48	25.863
811.66	25.865
811.83	25.823
812.01	25.841
812.18	25.832
812.36	25.819
812.53	25.898
812.71	25.780
812.88	25.723
813.06	25.655
813.23	25.750
813.41	25.781
813.58	25.678
813.76	25.731
813.93	25.797
814.11	25.801
814.28	25.961
814.46	25.959
814.63	26.130
814.81	26.184
814.98	26.293
815.16	26.137
815.33	25.970
815.51	26.064
815.68	26.069
815.86	26.105
816.03	26.167
816.21	25.966
816.38	25.879
816.56	25.705
816.73	25.798
816.91	25.651
817.08	25.728
817.26	25.802
817.43	25.862
817.61	25.901
817.78	25.894
817.96	25.898
818.13	26.029
818.31	26.059
818.48	26.215
818.66	26.265
818.83	26.383
819.01	26.415
819.18	26.417
819.36	26.369
819.53	26.393
819.70	26.363
819.88	26.543
820.05	26.607
820.23	26.770
820.40	26.776
820.58	26.681
820.75	26.762
820.93	26.815
821.10	26.993
821.28	27.191
821.45	27.231
821.62	27.332
821.80	27.332
821.97	27.331
822.15	27.413
822.32	27.508
822.50	27.801
822.67	28.076
822.84	28.189
823.02	28.056
823.19	27.858
823.37	27.678
823.54	27.524
823.72	27.351
823.89	27.213
824.06	27.118
824.24	27.034
824.41	26.936
824.59	26.812
824.76	26.698
824.94	26.627
825.11	26.562
825.28	26.518
825.46	26.490
825.63	26.521
825.81	26.590
825.98	26.623
826.15	26.697
826.33	26.750
826.50	26.808
826.68	26.894
826.85	26.926
827.02	27.001
827.20	27.097
827.37	27.201
827.54	27.367
827.72	27.550
827.89	27.722
828.07	27.796
828.24	27.772
828.41	27.745
828.59	27.665
828.76	27.603
828.94	27.534
829.11	27.489
829.28	27.447
829.46	27.344
829.63	27.216
829.80	27.117
829.98	27.035
830.15	27.012
830.32	26.984
830.50	26.994
830.67	27.036
830.85	27.126
831.02	27.160
831.19	27.086
831.37	27.112
831.54	27.234
831.71	27.249
831.89	27.312
832.06	27.331
832.23	27.442
832.41	27.511
832.58	27.602
832.75	27.695
832.93	27.683
833.10	27.811
833.27	27.922
833.45	27.912
833.62	27.930
833.79	27.927
833.97	28.051
834.14	28.155
834.31	28.306
834.49	28.408
834.66	28.338
834.83	28.385
835.01	28.337
835.18	28.251
835.35	28.136
835.52	28.080
835.70	28.024
835.87	27.969
836.04	27.867
836.22	27.733
836.39	27.638
836.56	27.596
836.74	27.554
836.91	27.534
837.08	27.502
837.25	27.560
837.43	27.609
837.60	27.566
837.77	27.533
837.95	27.581
838.12	27.616
838.29	27.602
838.46	27.647
838.64	27.584
838.81	27.468
838.98	27.566
839.16	27.547
839.33	27.367
839.50	27.355
839.67	27.563
839.85	27.517
840.02	27.863
840.19	27.795
840.36	27.887
840.54	28.015
840.71	28.322
840.88	28.352
841.06	28.336
841.23	28.536
841.40	28.641
841.57	28.517
841.75	28.454
841.92	28.302
842.09	28.314
842.26	28.180
842.44	28.065
842.61	27.885
842.78	27.944
842.95	27.983
843.12	27.909
843.30	27.756
843.47	27.801
843.64	27.897
843.81	28.009
843.99	28.123
844.16	28.194
844.33	28.311
844.50	28.605
844.68	28.494
844.85	28.317
845.02	28.342
845.19	28.478
845.36	28.368
845.54	28.441
845.71	28.391
845.88	28.401
846.05	28.303
846.22	28.279
846.40	28.156
846.57	28.419
846.74	28.500
846.91	28.473
847.08	28.689
847.26	28.811
847.43	28.622
847.60	28.470
847.77	28.390
847.94	28.639
848.12	28.919
848.29	28.894
848.46	28.586
848.63	28.918
848.80	28.910
848.98	29.024
849.15	28.967
849.32	29.237
849.49	29.325
849.66	29.518
849.83	29.535
850.01	29.354
850.18	29.348
850.35	29.405
850.52	29.478
850.69	29.569
850.86	29.442
851.04	29.330
851.21	29.380
851.38	29.246
851.55	28.890
851.72	28.696
851.89	28.940
852.06	29.046
852.24	29.047
852.41	29.096
852.58	29.040
852.75	29.090
852.92	29.291
853.09	29.370
853.26	29.371
853.44	29.800
853.61	29.916
853.78	29.567
853.95	29.528
854.12	29.229
854.29	29.237
854.46	29.520
854.64	29.542
854.81	29.411
854.98	29.143
855.15	29.167
855.32	29.066
855.49	28.926
855.66	28.828
855.83	28.765
856.00	29.040
856.18	28.797
856.35	28.205
856.52	28.316
856.69	28.562
856.86	28.678
857.03	28.845
857.20	28.897
857.37	29.513
857.54	29.793
857.71	30.058
857.89	30.418
858.06	30.363
858.23	30.498
858.40	30.117
858.57	29.918
858.74	29.666
858.91	29.387
859.08	29.317
859.25	28.779
859.42	28.498
859.59	28.409
859.76	28.271
859.94	28.199
860.11	28.337
860.28	28.543
860.45	28.464
860.62	28.673
860.79	28.748
860.96	29.010
861.13	28.787
861.30	28.819
861.47	28.723
861.64	28.823
861.81	28.886
861.98	29.083
862.15	29.275
862.32	29.278
862.49	29.121
862.66	29.231
862.83	28.663
863.01	28.865
863.18	28.990
863.35	29.145
863.52	29.282
863.69	29.199
863.86	29.020
864.03	28.960
864.20	29.262
864.37	29.435
864.54	29.385
864.71	29.889
864.88	30.013
865.05	30.112
865.22	29.987
865.39	29.838
865.56	29.962
865.73	30.379
865.90	30.274
866.07	30.069
866.24	30.175
866.41	30.325
866.58	30.003
866.75	30.026
866.92	30.023
867.09	30.095
867.26	29.904
867.43	29.829
867.60	29.548
867.77	29.525
867.94	29.341
868.11	29.244
868.28	29.416
868.45	29.467
868.62	29.661
868.79	29.935
868.96	30.032
869.13	30.167
869.30	30.223
869.47	30.000
869.64	29.997
869.81	30.212
869.98	30.127
870.15	30.278
870.32	30.315
870.49	29.943
870.66	29.740
870.83	29.560
871.00	29.439
871.16	29.666
871.33	30.032
871.50	30.193
871.67	30.397
871.84	30.317
872.01	29.987
872.18	30.221
872.35	30.775
872.52	30.705
872.69	30.512
872.86	30.735
873.03	30.808
873.20	30.660
873.37	30.600
873.54	30.441
873.71	30.591
873.88	30.508
874.05	30.570
874.21	30.274
874.38	30.228
874.55	30.419
874.72	30.321
874.89	30.200
875.06	30.278
875.23	30.366
875.40	30.323
875.57	30.511
875.74	30.599
875.91	30.484
876.08	30.528
876.24	30.358
876.41	30.429
876.58	30.667
876.75	30.386
876.92	30.290
877.09	30.310
877.26	30.575
877.43	30.307
877.60	30.443
877.77	30.279
877.93	30.196
878.10	30.442
878.27	30.416
878.44	30.185
878.61	30.615
878.78	30.767
878.95	30.525
879.12	30.462
879.28	30.695
879.45	30.945
879.62	31.040
879.79	30.881
879.96	31.092
880.13	31.083
880.30	30.983
880.47	30.781
880.63	30.786
880.80	30.877
880.97	31.038
881.14	31.095
881.31	30.999
881.48	31.181
881.65	31.707
881.81	31.870
881.98	32.179
882.15	32.369
882.32	32.548
882.49	32.526
882.66	32.489
882.82	32.260
882.99	32.098
883.16	31.930
883.33	31.792
883.50	31.605
883.67	31.499
883.83	31.391
884.00	31.295
884.17	31.148
884.34	31.043
884.51	30.919
884.68	30.869
884.84	30.822
885.01	30.827
885.18	30.831
885.35	30.857
885.52	30.844
885.68	30.823
885.85	30.812
886.02	31.075
886.19	30.567
886.36	30.814
886.53	30.953
886.69	31.138
>>>>>End Spectral Data<<<<<
